Frequency_Hz,Amplitude
39643296.000000,-74.8980484
39990438.272000,-74.5189514
40337580.544000,-74.7475281
40684722.816000,-74.811882
41031865.088000,-74.3545532
41379007.360000,-74.2406006
41726149.632000,-73.6834793
42073291.904000,-73.0383377
42420434.176000,-72.7218857
42767576.448000,-72.1892166
43114718.720000,-72.3340149
43461860.992000,-71.2164078
43809003.264000,-70.9157715
44156145.536000,-69.3176498
44503287.808000,-67.7397766
44850430.080000,-66.7120743
45197572.352000,-65.25383
45544714.624000,-63.4198952
45891856.896000,-61.5952454
46238999.168000,-59.2017021
46586141.440000,-56.2691193
46933283.712000,-53.2051697
47280425.984000,-51.4924011
47627568.256000,-52.1617432
47974710.528000,-55.2259903
48321852.800000,-58.1963577
48668995.072000,-60.6457176
49016137.344000,-62.7447052
49363279.616000,-64.1305313
49710421.888000,-65.608696
50057564.160000,-66.2515869
50404706.432000,-67.490654
50751848.704000,-69.0032654
51098990.976000,-69.1956558
51446133.248000,-68.9308243
51793275.520000,-69.8571777
52140417.792000,-70.6407852
52487560.064000,-70.4184113
52834702.336000,-70.7699432
53181844.608000,-71.6132889
53528986.880000,-71.0438156
53876129.152000,-70.6525574
54223271.424000,-70.5964737
54570413.696000,-70.7679062
54917555.968000,-71.4591293
55264698.240000,-71.6127472
55611840.512000,-70.1994324
55958982.784000,-70.8425827
56306125.056000,-71.358078
56653267.328000,-70.0814285
57000409.600000,-69.8177338
57347551.872000,-69.9687424
57694694.144000,-70.399498
58041836.416000,-70.2313156
58388978.688000,-70.5521927
58736120.960000,-69.7513428
59083263.232000,-70.0459976
59430405.504000,-69.9668961
59777547.776000,-69.7053146
60124690.048000,-69.4698868
60471832.320000,-69.5606232
60818974.592000,-69.0787506
61166116.864000,-69.335907
61513259.136000,-68.4083939
61860401.408000,-68.3088074
62207543.680000,-68.8049393
62554685.952000,-68.0250549
62901828.224000,-67.8986588
63248970.496000,-67.668602
63596112.768000,-67.7881393
63943255.040000,-67.4006195
64290397.312000,-66.4409714
64637539.584000,-66.284729
64984681.856000,-66.2562866
65331824.128000,-66.0390778
65678966.400000,-65.2852859
66026108.672000,-65.1569214
66373250.944000,-64.2720795
66720393.216000,-63.90662
67067535.488000,-62.9580193
67414677.760000,-61.8066521
67761820.032000,-60.8372612
68108962.304000,-59.9584427
68456104.576000,-59.9089165
68803246.848000,-61.2926826
69150389.120000,-64.1099548
69497531.392000,-67.8327103
69844673.664000,-70.6205978
70191815.936000,-73.261261
70538958.208000,-74.7114029
70886100.480000,-74.5235977
71233242.752000,-73.2271118
71580385.024000,-73.6281128
71927527.296000,-73.2890778
72274669.568000,-73.3933792
72621811.840000,-71.616806
72968954.112000,-71.5322037
73316096.384000,-70.5892868
73663238.656000,-70.6444321
74010380.928000,-70.3627014
74357523.200000,-70.6341171
74704665.472000,-69.5439911
75051807.744000,-68.9511795
75398950.016000,-69.8365707
75746092.288000,-69.3390961
76093234.560000,-69.1687546
76440376.832000,-69.7332306
76787519.104000,-69.0455246
77134661.376000,-68.9380569
77481803.648000,-68.7200165
77828945.920000,-69.0325394
78176088.192000,-69.5097046
78523230.464000,-69.3896255
78870372.736000,-69.0748901
79217515.008000,-69.5415497
79564657.280000,-68.6269379
79911799.552000,-69.1008148
80258941.824000,-68.9292221
80606084.096000,-69.3376236
80953226.368000,-69.1942062
81300368.640000,-69.6689377
81647510.912000,-68.8637161
81994653.184000,-69.593605
82341795.456000,-69.1926804
82688937.728000,-68.7537003
83036080.000000,-68.9131012
83383222.272000,-69.0390167
83730364.544000,-68.900795
84077506.816000,-68.152977
84424649.088000,-67.5597458
84771791.360000,-67.7562027
85118933.632000,-68.1092377
85466075.904000,-67.4659958
85813218.176000,-67.4329834
86160360.448000,-66.8876114
86507502.720000,-66.6138535
86854644.992000,-66.0951309
87201787.264000,-65.6967392
87548929.536000,-65.2534866
87896071.808000,-64.8861694
88243214.080000,-64.4145813
88590356.352000,-63.9573593
88937498.624000,-63.5499229
89284640.896000,-63.0651283
89631783.168000,-63.1924934
89978925.440000,-63.2615662
90326067.712000,-62.9212036
90673209.984000,-63.6398888
91020352.256000,-63.5428009
91367494.528000,-64.0122299
91714636.800000,-63.8902473
92061779.072000,-64.3610077
92408921.344000,-64.7915421
92756063.616000,-64.3957748
93103205.888000,-65.1230316
93450348.160000,-65.1874847
93797490.432000,-65.3461075
94144632.704000,-65.4433212
94491774.976000,-66.0662537
94838917.248000,-66.4899902
95186059.520000,-67.1235733
95533201.792000,-67.6417999
95880344.064000,-68.5444717
96227486.336000,-68.7650909
96574628.608000,-68.276329
96921770.880000,-68.9491348
97268913.152000,-68.7312775
97616055.424000,-68.7696152
97963197.696000,-69.128334
98310339.968000,-68.3000107
98657482.240000,-68.4796143
99004624.512000,-68.4690323
99351766.784000,-68.1317825
99698909.056000,-68.2631683
100046051.328000,-68.0217361
100393193.600000,-68.3923569
100740335.872000,-67.5599289
101087478.144000,-67.3131943
101434620.416000,-67.5540848
101781762.688000,-66.5012589
102128904.960000,-66.6541138
102476047.232000,-66.0763702
102823189.504000,-66.0382004
103170331.776000,-65.0107193
103517474.048000,-64.4772644
103864616.320000,-63.8433342
104211758.592000,-63.0423927
104558900.864000,-61.9836197
104906043.136000,-61.2212982
105253185.408000,-60.0528107
105600327.680000,-58.7697487
105947469.952000,-57.5210686
106294612.224000,-56.4212112
106641754.496000,-55.1823349
106988896.768000,-53.9307404
107336039.040000,-52.9584389
107683181.312000,-52.1992569
108030323.584000,-51.5606728
108377465.856000,-51.2439842
108724608.128000,-51.1700821
109071750.400000,-51.1891365
109418892.672000,-51.3739929
109766034.944000,-51.5543671
110113177.216000,-51.8349648
110460319.488000,-52.0485992
110807461.760000,-52.3783798
111154604.032000,-52.8216362
111501746.304000,-52.9065552
111848888.576000,-53.0732117
112196030.848000,-53.320385
112543173.120000,-53.7499275
112890315.392000,-53.8411407
113237457.664000,-53.8766403
113584599.936000,-54.1004944
113931742.208000,-54.3260498
114278884.480000,-54.5129128
114626026.752000,-54.6601601
114973169.024000,-54.9170837
115320311.296000,-55.1080246
115667453.568000,-55.2385025
116014595.840000,-55.451664
116361738.112000,-55.6746445
116708880.384000,-55.7527695
117056022.656000,-55.7980843
117403164.928000,-56.1577492
117750307.200000,-56.2074966
118097449.472000,-56.2611465
118444591.744000,-56.5182686
118791734.016000,-56.6081924
119138876.288000,-56.6776314
119486018.560000,-56.8853455
119833160.832000,-56.8863831
120180303.104000,-57.2306328
120527445.376000,-57.4712372
120874587.648000,-57.8155708
121221729.920000,-57.966198
121568872.192000,-58.3220749
121916014.464000,-58.7344246
122263156.736000,-59.3312607
122610299.008000,-59.8339577
122957441.280000,-60.3445206
123304583.552000,-60.8659325
123651725.824000,-61.2995033
123998868.096000,-61.4860001
124346010.368000,-61.9667587
124693152.640000,-62.1305046
125040294.912000,-60.521534
125387437.184000,-62.2705116
125734579.456000,-62.073307
126081721.728000,-62.7124329
126428864.000000,-62.8700562
126776006.272000,-62.1765366
127123148.544000,-62.2779541
127470290.816000,-61.9057579
127817433.088000,-61.8358078
128164575.360000,-61.8637161
128511717.632000,-61.6954689
128858859.904000,-61.6737862
129206002.176000,-61.2700119
129553144.448000,-61.1033592
129900286.720000,-61.0658455
130247428.992000,-60.7578392
130594571.264000,-60.712883
130941713.536000,-60.7079887
131288855.808000,-60.6390724
131635998.080000,-60.859951
131983140.352000,-60.9468803
132330282.624000,-61.419754
132677424.896000,-61.5214539
133024567.168000,-62.0425301
133371709.440000,-62.6412888
133718851.712000,-63.0198936
134065993.984000,-63.6769829
134413136.256000,-64.5677414
134760278.528000,-64.5537415
135107420.800000,-65.1833038
135454563.072000,-65.3017731
135801705.344000,-65.9358597
136148847.616000,-66.0183945
136495989.888000,-66.5744553
136843132.160000,-66.1877136
137190274.432000,-67.0801315
137537416.704000,-66.7572632
137884558.976000,-67.0893021
138231701.248000,-66.5422363
138578843.520000,-67.0486145
138925985.792000,-66.5450287
139273128.064000,-66.8031158
139620270.336000,-66.4625092
139967412.608000,-66.7828751
140314554.880000,-66.1197968
140661697.152000,-66.086731
141008839.424000,-65.7545471
141355981.696000,-65.3915329
141703123.968000,-65.2483139
142050266.240000,-65.0383835
142397408.512000,-65.0010376
142744550.784000,-64.3347626
143091693.056000,-64.7202377
143438835.328000,-64.3711777
143785977.600000,-64.7003784
144133119.872000,-64.2657928
144480262.144000,-64.28862
144827404.416000,-64.3422699
145174546.688000,-64.4529953
145521688.960000,-64.9201508
145868831.232000,-65.1815872
146215973.504000,-65.588562
146563115.776000,-65.3998795
146910258.048000,-65.5221405
147257400.320000,-66.398613
147604542.592000,-66.6625443
147951684.864000,-67.3402328
148298827.136000,-67.0880127
148645969.408000,-67.6701584
148993111.680000,-68.2844391
149340253.952000,-68.6311493
149687396.224000,-69.1743469
150034538.496000,-66.1923523
150381680.768000,-68.635849
150728823.040000,-70.3864594
151075965.312000,-70.8510361
151423107.584000,-71.3835907
151770249.856000,-71.1314316
152117392.128000,-71.734726
152464534.400000,-72.1691971
152811676.672000,-72.4599533
153158818.944000,-73.3140945
153505961.216000,-73.2565536
153853103.488000,-74.1409378
154200245.760000,-73.9511414
154547388.032000,-74.1930847
154894530.304000,-73.7038345
155241672.576000,-74.4021149
155588814.848000,-74.0849457
155935957.120000,-73.7752762
156283099.392000,-74.2773209
156630241.664000,-74.5221252
156977383.936000,-73.2707672
157324526.208000,-73.0057144
157671668.480000,-73.5344925
158018810.752000,-73.5239258
158365953.024000,-72.3733368
158713095.296000,-72.5812683
159060237.568000,-71.9382019
159407379.840000,-71.3103867
159754522.112000,-72.0354614
160101664.384000,-71.1870499
160448806.656000,-70.975769
160795948.928000,-70.5577164
161143091.200000,-70.3303528
161490233.472000,-70.1029205
161837375.744000,-70.4358139
162184518.016000,-69.5322037
162531660.288000,-69.231781
162878802.560000,-68.5396652
163225944.832000,-68.0909729
163573087.104000,-68.9095154
163920229.376000,-68.4601593
164267371.648000,-67.8612213
164614513.920000,-67.8093948
164961656.192000,-67.8491974
165308798.464000,-67.6614075
165655940.736000,-67.0404358
166003083.008000,-67.2875443
166350225.280000,-66.5841522
166697367.552000,-66.4388123
167044509.824000,-66.1563187
167391652.096000,-65.5859756
167738794.368000,-65.6607895
168085936.640000,-65.5849533
168433078.912000,-65.2073975
168780221.184000,-64.765625
169127363.456000,-64.2564163
169474505.728000,-64.4003754
169821648.000000,-64.2102737
170168790.272000,-63.3558197
170515932.544000,-63.5555763
170863074.816000,-63.3285027
171210217.088000,-62.6545105
171557359.360000,-62.2149963
171904501.632000,-62.2070389
172251643.904000,-61.7669907
172598786.176000,-61.2236443
172945928.448000,-61.1455994
173293070.720000,-60.6921806
173640212.992000,-60.3118286
173987355.264000,-60.2932663
174334497.536000,-59.5679741
174681639.808000,-59.1755524
175028782.080000,-58.8434258
175375924.352000,-58.5750656
175723066.624000,-58.3219032
176070208.896000,-58.1133881
176417351.168000,-57.7755814
176764493.440000,-57.5594749
177111635.712000,-57.3352585
177458777.984000,-57.0016098
177805920.256000,-56.9565125
178153062.528000,-56.8051414
178500204.800000,-56.7573433
178847347.072000,-56.623497
179194489.344000,-56.5268021
179541631.616000,-56.42519
179888773.888000,-56.299469
180235916.160000,-56.2623444
180583058.432000,-56.3174515
180930200.704000,-56.2298813
181277342.976000,-56.5199013
181624485.248000,-56.1630707
181971627.520000,-56.1833267
182318769.792000,-56.1349487
182665912.064000,-56.2050018
183013054.336000,-56.1912575
183360196.608000,-56.395874
183707338.880000,-56.489563
184054481.152000,-56.5567894
184401623.424000,-56.6547585
184748765.696000,-56.8153229
185095907.968000,-56.9467087
185443050.240000,-57.1884384
185790192.512000,-57.139576
186137334.784000,-57.4126701
186484477.056000,-57.7881165
186831619.328000,-57.8188248
187178761.600000,-57.953228
187525903.872000,-58.2537384
187873046.144000,-58.4433746
188220188.416000,-58.5562019
188567330.688000,-59.1510277
188914472.960000,-59.5611649
189261615.232000,-59.7391434
189608757.504000,-59.5872841
189955899.776000,-60.0375137
190303042.048000,-60.0034714
190650184.320000,-60.2940788
190997326.592000,-60.2608681
191344468.864000,-59.9684525
191691611.136000,-59.9169312
192038753.408000,-59.5616074
192385895.680000,-59.4814644
192733037.952000,-58.9281883
193080180.224000,-58.2582741
193427322.496000,-57.8130074
193774464.768000,-57.3830223
194121607.040000,-56.6482582
194468749.312000,-56.0574226
194815891.584000,-55.3751602
195163033.856000,-54.6838951
195510176.128000,-53.9366188
195857318.400000,-53.1298294
196204460.672000,-52.2033386
196551602.944000,-51.4320145
196898745.216000,-50.6336021
197245887.488000,-49.8308029
197593029.760000,-48.9587288
197940172.032000,-48.0935936
198287314.304000,-47.3766861
198634456.576000,-46.7356834
198981598.848000,-46.1652489
199328741.120000,-45.6414223
199675883.392000,-45.2980995
200023025.664000,-45.0082588
200370167.936000,-44.8649025
200717310.208000,-44.8076668
201064452.480000,-44.8123207
201411594.752000,-44.9463234
201758737.024000,-45.0466003
202105879.296000,-45.1938934
202453021.568000,-45.392498
202800163.840000,-45.598175
203147306.112000,-45.7509804
203494448.384000,-45.9144897
203841590.656000,-46.084465
204188732.928000,-46.1749039
204535875.200000,-46.3571243
204883017.472000,-46.5046768
205230159.744000,-46.6126251
205577302.016000,-46.7047653
205924444.288000,-46.8244514
206271586.560000,-47.0301895
206618728.832000,-47.0485764
206965871.104000,-47.1930084
207313013.376000,-47.3233032
207660155.648000,-47.4800491
208007297.920000,-47.5830879
208354440.192000,-47.6799889
208701582.464000,-47.8984985
209048724.736000,-48.0465431
209395867.008000,-48.1940117
209743009.280000,-48.3653755
210090151.552000,-48.4962502
210437293.824000,-48.718132
210784436.096000,-48.9422874
211131578.368000,-49.1138687
211478720.640000,-49.3048897
211825862.912000,-49.4957924
212173005.184000,-49.6891747
212520147.456000,-49.9998131
212867289.728000,-50.1893845
213214432.000000,-50.3923416
213561574.272000,-50.7382469
213908716.544000,-50.8673172
214255858.816000,-51.1904144
214603001.088000,-51.3769951
214950143.360000,-51.6618843
215297285.632000,-52.0176735
215644427.904000,-52.2681732
215991570.176000,-52.6020088
216338712.448000,-53.0297203
216685854.720000,-53.3147964
217032996.992000,-53.6018829
217380139.264000,-54.0995255
217727281.536000,-54.5073471
218074423.808000,-54.9035263
218421566.080000,-55.4554443
218768708.352000,-55.9632683
219115850.624000,-56.7417145
219462992.896000,-57.2238846
219810135.168000,-58.0356293
220157277.440000,-58.5311165
220504419.712000,-59.0016823
220851561.984000,-59.386467
221198704.256000,-59.2662315
221545846.528000,-58.7116508
221892988.800000,-57.6293716
222240131.072000,-56.6498604
222587273.344000,-55.5577736
222934415.616000,-54.3006706
223281557.888000,-53.2125702
223628700.160000,-52.1086349
223975842.432000,-51.1364861
224322984.704000,-50.2498474
224670126.976000,-49.5112152
225017269.248000,-48.6228333
225364411.520000,-47.9394646
225711553.792000,-47.4249687
226058696.064000,-46.8543663
226405838.336000,-46.2054367
226752980.608000,-45.7606506
227100122.880000,-45.3652344
227447265.152000,-44.9488106
227794407.424000,-44.4549332
228141549.696000,-44.1377411
228488691.968000,-43.8511848
228835834.240000,-43.499897
229182976.512000,-43.1392212
229530118.784000,-42.8837814
229877261.056000,-42.6264305
230224403.328000,-42.3345642
230571545.600000,-42.0848579
230918687.872000,-41.8711014
231265830.144000,-41.6306992
231612972.416000,-41.3677826
231960114.688000,-41.1738739
232307256.960000,-41.0347633
232654399.232000,-40.7855988
233001541.504000,-40.6229477
233348683.776000,-40.5022964
233695826.048000,-40.4306679
234042968.320000,-40.2445755
234390110.592000,-40.1567535
234737252.864000,-40.1002884
235084395.136000,-40.0246964
235431537.408000,-39.9332771
235778679.680000,-39.9430122
236125821.952000,-39.9288864
236472964.224000,-39.9223061
236820106.496000,-39.8926506
237167248.768000,-39.9648895
237514391.040000,-40.048645
237861533.312000,-40.0672455
238208675.584000,-40.1672707
238555817.856000,-40.3078384
238902960.128000,-40.437149
239250102.400000,-40.5036583
239597244.672000,-40.7119751
239944386.944000,-40.9255409
240291529.216000,-41.0718803
240638671.488000,-41.2589226
240985813.760000,-41.526207
241332956.032000,-41.7598877
241680098.304000,-41.9732323
242027240.576000,-42.2530899
242374382.848000,-42.5949974
242721525.120000,-42.9288673
243068667.392000,-43.1755524
243415809.664000,-43.5578613
243762951.936000,-43.9970665
244110094.208000,-44.3338928
244457236.480000,-44.7239265
244804378.752000,-45.214962
245151521.024000,-45.6713676
245498663.296000,-46.0995102
245845805.568000,-46.6476288
246192947.840000,-47.1168709
246540090.112000,-47.6209679
246887232.384000,-48.2127228
247234374.656000,-48.7043343
247581516.928000,-49.3064613
247928659.200000,-49.8957367
248275801.472000,-50.5009155
248622943.744000,-51.0247345
248970086.016000,-51.7937508
249317228.288000,-52.2810593
249664370.560000,-52.9820518
250011512.832000,-53.6736603
250358655.104000,-54.2935829
250705797.376000,-54.9073982
251052939.648000,-55.6388016
251400081.920000,-56.4647636
251747224.192000,-57.2739601
252094366.464000,-58.1227875
252441508.736000,-58.7893715
252788651.008000,-59.6237984
253135793.280000,-60.3185883
253482935.552000,-60.8853722
253830077.824000,-61.3919029
254177220.096000,-61.3698997
254524362.368000,-61.4699898
254871504.640000,-60.6558647
255218646.912000,-60.5739441
255565789.184000,-59.4690323
255912931.456000,-58.4361496
256260073.728000,-57.5018234
256607216.000000,-56.5004997
256954358.272000,-55.3894768
257301500.544000,-54.4532814
257648642.816000,-53.6535378
257995785.088000,-52.6245041
258342927.360000,-51.7675972
258690069.632000,-50.980423
259037211.904000,-50.0940285
259384354.176000,-49.2652435
259731496.448000,-48.5652771
260078638.720000,-47.8018417
260425780.992000,-47.1219215
260772923.264000,-46.4208183
261120065.536000,-45.8387299
261467207.808000,-45.1816673
261814350.080000,-44.6353722
262161492.352000,-44.0886154
262508634.624000,-43.5826874
262855776.896000,-43.0299759
263202919.168000,-42.6328201
263550061.440000,-42.2344742
263897203.712000,-41.8641357
264244345.984000,-41.51577
264591488.256000,-41.2449265
264938630.528000,-40.9963341
265285772.800000,-40.7660179
265632915.072000,-40.6007423
265980057.344000,-40.474041
266327199.616000,-40.3632622
266674341.888000,-40.2505112
267021484.160000,-40.2076988
267368626.432000,-40.1664543
267715768.704000,-40.1202202
268062910.976000,-40.1251526
268410053.248000,-40.1234665
268757195.520000,-40.1883049
269104337.792000,-40.1665306
269451480.064000,-40.1886253
269798622.336000,-40.2560349
270145764.608000,-40.2974434
270492906.880000,-40.3329353
270840049.152000,-40.4409714
271187191.424000,-40.5272141
271534333.696000,-40.5971222
271881475.968000,-40.629261
272228618.240000,-40.7726326
272575760.512000,-40.8619576
272922902.784000,-40.9532967
