Frequency_Hz,Amplitude
39643296.000000,-75.7186584
39990438.272000,-74.7852936
40337580.544000,-74.0685349
40684722.816000,-73.9893188
41031865.088000,-74.1145096
41379007.360000,-74.0878601
41726149.632000,-73.8293076
42073291.904000,-73.5039444
42420434.176000,-72.9446335
42767576.448000,-72.8074188
43114718.720000,-71.6704178
43461860.992000,-70.9166794
43809003.264000,-70.3431854
44156145.536000,-69.3924637
44503287.808000,-67.8884506
44850430.080000,-66.3530579
45197572.352000,-65.3362808
45544714.624000,-63.5839424
45891856.896000,-61.3582954
46238999.168000,-59.0263367
46586141.440000,-56.3809738
46933283.712000,-53.1425781
47280425.984000,-51.4336128
47627568.256000,-52.1944313
47974710.528000,-55.1266365
48321852.800000,-57.9202309
48668995.072000,-60.7055969
49016137.344000,-62.6835518
49363279.616000,-63.995636
49710421.888000,-65.3905411
50057564.160000,-66.3687668
50404706.432000,-68.012291
50751848.704000,-68.2052612
51098990.976000,-69.0158997
51446133.248000,-69.2929459
51793275.520000,-70.1465378
52140417.792000,-69.5840225
52487560.064000,-70.8551178
52834702.336000,-71.7107544
53181844.608000,-70.6584854
53528986.880000,-70.9854584
53876129.152000,-71.5619507
54223271.424000,-70.359314
54570413.696000,-70.7348175
54917555.968000,-70.292923
55264698.240000,-71.3923874
55611840.512000,-71.2807465
55958982.784000,-70.6039963
56306125.056000,-70.5408401
56653267.328000,-70.7321777
57000409.600000,-70.7285461
57347551.872000,-70.9376602
57694694.144000,-70.4474258
58041836.416000,-69.8591995
58388978.688000,-70.6462631
58736120.960000,-69.9997559
59083263.232000,-70.1061935
59430405.504000,-70.044899
59777547.776000,-69.7957306
60124690.048000,-69.0471573
60471832.320000,-69.3942719
60818974.592000,-68.8421555
61166116.864000,-68.6121979
61513259.136000,-69.4714661
61860401.408000,-68.6411896
62207543.680000,-68.2548141
62554685.952000,-67.8953476
62901828.224000,-67.9095078
63248970.496000,-67.6876221
63596112.768000,-67.3766098
63943255.040000,-66.9050064
64290397.312000,-66.9904327
64637539.584000,-66.3666992
64984681.856000,-66.6616592
65331824.128000,-65.643425
65678966.400000,-65.6008911
66026108.672000,-65.3134384
66373250.944000,-64.0866699
66720393.216000,-63.8382339
67067535.488000,-62.8917198
67414677.760000,-61.6005211
67761820.032000,-60.771656
68108962.304000,-59.8957405
68456104.576000,-59.8299866
68803246.848000,-61.2665482
69150389.120000,-64.3255463
69497531.392000,-67.4472656
69844673.664000,-71.2276001
70191815.936000,-73.7428589
70538958.208000,-75.2028275
70886100.480000,-74.4561005
71233242.752000,-74.0560455
71580385.024000,-74.0499191
71927527.296000,-73.0734787
72274669.568000,-72.4288483
72621811.840000,-72.5638657
72968954.112000,-71.1998901
73316096.384000,-70.2746658
73663238.656000,-70.9462967
74010380.928000,-70.5772781
74357523.200000,-69.7452774
74704665.472000,-70.070137
75051807.744000,-69.4349289
75398950.016000,-69.1430054
75746092.288000,-69.6011429
76093234.560000,-68.9904175
76440376.832000,-68.9775085
76787519.104000,-69.117981
77134661.376000,-69.3617554
77481803.648000,-68.8722
77828945.920000,-69.4523621
78176088.192000,-68.6271362
78523230.464000,-69.1959991
78870372.736000,-68.8822632
79217515.008000,-68.7170715
79564657.280000,-69.6823807
79911799.552000,-68.5468292
80258941.824000,-68.9018097
80606084.096000,-69.3038025
80953226.368000,-69.0892563
81300368.640000,-69.2214813
81647510.912000,-69.2149963
81994653.184000,-69.391571
82341795.456000,-68.8541336
82688937.728000,-68.5696106
83036080.000000,-69.0476151
83383222.272000,-68.5480576
83730364.544000,-68.3770294
84077506.816000,-68.4930954
84424649.088000,-68.408905
84771791.360000,-67.9871979
85118933.632000,-68.083046
85466075.904000,-67.6111679
85813218.176000,-66.9409332
86160360.448000,-66.8584671
86507502.720000,-66.3620605
86854644.992000,-65.886673
87201787.264000,-65.7476654
87548929.536000,-65.0529251
87896071.808000,-64.2976227
88243214.080000,-64.3123398
88590356.352000,-63.8401031
88937498.624000,-63.3266945
89284640.896000,-63.1864624
89631783.168000,-63.1706734
89978925.440000,-63.5378685
90326067.712000,-63.3400002
90673209.984000,-63.6396713
91020352.256000,-64.1218109
91367494.528000,-64.7193298
91714636.800000,-64.8752823
92061779.072000,-64.9114914
92408921.344000,-65.082283
92756063.616000,-65.1567307
93103205.888000,-65.0169373
93450348.160000,-65.0519028
93797490.432000,-65.2324753
94144632.704000,-65.2144394
94491774.976000,-65.9685669
94838917.248000,-66.6507568
95186059.520000,-67.1395111
95533201.792000,-67.7574768
95880344.064000,-68.0148621
96227486.336000,-68.1249237
96574628.608000,-68.1734085
96921770.880000,-69.0625687
97268913.152000,-68.2470169
97616055.424000,-68.3911819
97963197.696000,-68.9482956
98310339.968000,-68.4261475
98657482.240000,-68.2399368
99004624.512000,-68.9757614
99351766.784000,-68.0824051
99698909.056000,-68.3600922
100046051.328000,-68.0898438
100393193.600000,-67.9536972
100740335.872000,-67.604454
101087478.144000,-66.9936905
101434620.416000,-66.4741516
101781762.688000,-67.1126404
102128904.960000,-66.3788834
102476047.232000,-65.3199005
102823189.504000,-65.5650406
103170331.776000,-64.8324966
103517474.048000,-64.7771759
103864616.320000,-63.8622513
104211758.592000,-62.8562393
104558900.864000,-62.022892
104906043.136000,-61.114357
105253185.408000,-60.0869598
105600327.680000,-59.0684967
105947469.952000,-57.5830841
106294612.224000,-56.3125076
106641754.496000,-55.0506401
106988896.768000,-53.9307938
107336039.040000,-52.9375191
107683181.312000,-52.2518883
108030323.584000,-51.5245705
108377465.856000,-51.218689
108724608.128000,-51.0837784
109071750.400000,-51.1259537
109418892.672000,-51.2726784
109766034.944000,-51.5453033
110113177.216000,-51.7797394
110460319.488000,-52.0811462
110807461.760000,-52.2565041
111154604.032000,-52.6696548
111501746.304000,-52.933239
111848888.576000,-53.075901
112196030.848000,-53.4559174
112543173.120000,-53.6239815
112890315.392000,-53.8574333
113237457.664000,-53.9984932
113584599.936000,-54.2474823
113931742.208000,-54.3915024
114278884.480000,-54.7063408
114626026.752000,-54.9048271
114973169.024000,-55.0561371
115320311.296000,-55.1953583
115667453.568000,-55.4708023
116014595.840000,-55.6814194
116361738.112000,-55.950161
116708880.384000,-55.9211807
117056022.656000,-56.0954666
117403164.928000,-56.2381783
117750307.200000,-56.3750725
118097449.472000,-56.5568085
118444591.744000,-56.9073677
118791734.016000,-56.9253387
119138876.288000,-57.1371193
119486018.560000,-57.1799927
119833160.832000,-57.5307999
120180303.104000,-57.8349838
120527445.376000,-57.8631706
120874587.648000,-58.372036
121221729.920000,-58.4878693
121568872.192000,-58.8004761
121916014.464000,-58.789959
122263156.736000,-59.4566193
122610299.008000,-60.0391273
122957441.280000,-60.1546745
123304583.552000,-60.6087379
123651725.824000,-60.9054947
123998868.096000,-61.2769432
124346010.368000,-61.2574539
124693152.640000,-61.2481613
125040294.912000,-59.7772942
125387437.184000,-61.2439613
125734579.456000,-62.0813713
126081721.728000,-61.8740807
126428864.000000,-62.0285416
126776006.272000,-61.9352036
127123148.544000,-62.0965729
127470290.816000,-62.0883179
127817433.088000,-61.6511421
128164575.360000,-61.2216072
128511717.632000,-61.2550125
128858859.904000,-61.1327553
129206002.176000,-61.0573845
129553144.448000,-60.8120499
129900286.720000,-60.8362503
130247428.992000,-60.5138702
130594571.264000,-60.4930115
130941713.536000,-60.4937744
131288855.808000,-60.4737206
131635998.080000,-60.4865379
131983140.352000,-60.9756546
132330282.624000,-61.2540207
132677424.896000,-61.804287
133024567.168000,-62.4017563
133371709.440000,-62.9879036
133718851.712000,-63.5950813
134065993.984000,-64.0937653
134413136.256000,-64.6046295
134760278.528000,-65.1190796
135107420.800000,-65.7367859
135454563.072000,-66.0782547
135801705.344000,-66.7514267
136148847.616000,-66.9953918
136495989.888000,-67.3031616
136843132.160000,-67.1367569
137190274.432000,-67.4030151
137537416.704000,-67.9679413
137884558.976000,-66.9295578
138231701.248000,-67.4701996
138578843.520000,-67.7277908
138925985.792000,-67.2431107
139273128.064000,-67.0977783
139620270.336000,-67.3001862
139967412.608000,-67.3198395
140314554.880000,-66.6598434
140661697.152000,-66.4655914
141008839.424000,-66.6890182
141355981.696000,-65.5458832
141703123.968000,-65.4968262
142050266.240000,-65.497963
142397408.512000,-64.9411163
142744550.784000,-64.7945633
143091693.056000,-64.6393433
143438835.328000,-64.491806
143785977.600000,-64.3578949
144133119.872000,-64.7168579
144480262.144000,-64.4266815
144827404.416000,-64.632843
145174546.688000,-64.5267639
145521688.960000,-64.7394714
145868831.232000,-64.8264389
146215973.504000,-65.1078339
146563115.776000,-65.7527466
146910258.048000,-65.6111603
147257400.320000,-66.1849289
147604542.592000,-66.1787491
147951684.864000,-67.0101013
148298827.136000,-67.2203598
148645969.408000,-67.2796021
148993111.680000,-67.6719589
149340253.952000,-67.9062042
149687396.224000,-68.5411987
150034538.496000,-67.0441132
150381680.768000,-68.9105377
150728823.040000,-69.5679245
151075965.312000,-70.7827606
151423107.584000,-71.0936737
151770249.856000,-71.1458511
152117392.128000,-73.0255051
152464534.400000,-73.2050095
152811676.672000,-72.7825699
153158818.944000,-73.9251785
153505961.216000,-72.7439346
153853103.488000,-74.3513184
154200245.760000,-75.1290817
154547388.032000,-73.8943939
154894530.304000,-74.7549667
155241672.576000,-74.1708679
155588814.848000,-73.8556671
155935957.120000,-74.2105789
156283099.392000,-73.713829
156630241.664000,-73.9657211
156977383.936000,-73.843811
157324526.208000,-73.4470444
157671668.480000,-72.8133926
158018810.752000,-73.1831741
158365953.024000,-72.2823486
158713095.296000,-72.8286133
159060237.568000,-72.1062088
159407379.840000,-71.1779709
159754522.112000,-71.209549
160101664.384000,-70.8559952
160448806.656000,-71.4979324
160795948.928000,-70.6736374
161143091.200000,-70.0680923
161490233.472000,-69.8690872
161837375.744000,-69.8485794
162184518.016000,-69.1923676
162531660.288000,-69.0929642
162878802.560000,-68.8363342
163225944.832000,-68.7018204
163573087.104000,-68.6670532
163920229.376000,-68.2009048
164267371.648000,-68.1944733
164614513.920000,-67.4074554
164961656.192000,-67.4302368
165308798.464000,-66.9904251
165655940.736000,-66.6218338
166003083.008000,-66.5630722
166350225.280000,-66.4171448
166697367.552000,-66.4567566
167044509.824000,-66.1018448
167391652.096000,-65.891983
167738794.368000,-65.511795
168085936.640000,-65.1530914
168433078.912000,-64.9616776
168780221.184000,-64.9406052
169127363.456000,-64.6607056
169474505.728000,-64.331398
169821648.000000,-63.8333702
170168790.272000,-63.5315323
170515932.544000,-63.7689743
170863074.816000,-63.2762947
171210217.088000,-62.9195213
171557359.360000,-62.592659
171904501.632000,-62.3838615
172251643.904000,-61.5649796
172598786.176000,-61.3239861
172945928.448000,-61.2281723
173293070.720000,-60.4938202
173640212.992000,-60.4529457
173987355.264000,-59.987278
174334497.536000,-59.593647
174681639.808000,-59.3098183
175028782.080000,-58.9863815
175375924.352000,-58.6624985
175723066.624000,-58.2162323
176070208.896000,-58.0628738
176417351.168000,-57.7254601
176764493.440000,-57.4546661
177111635.712000,-57.2820129
177458777.984000,-57.1850243
177805920.256000,-56.9607582
178153062.528000,-56.8913078
178500204.800000,-56.4895287
178847347.072000,-56.6410408
179194489.344000,-56.3870964
179541631.616000,-56.354454
179888773.888000,-56.2563477
180235916.160000,-56.2716103
180583058.432000,-56.2027092
180930200.704000,-56.1965408
181277342.976000,-56.1112289
181624485.248000,-56.1912956
181971627.520000,-56.2502136
182318769.792000,-56.3163338
182665912.064000,-56.2400589
183013054.336000,-56.5006599
183360196.608000,-56.302372
183707338.880000,-56.6945534
184054481.152000,-56.5837173
184401623.424000,-56.6379051
184748765.696000,-56.670681
185095907.968000,-56.9699593
185443050.240000,-57.0779152
185790192.512000,-57.059967
186137334.784000,-57.3722343
186484477.056000,-57.5474625
186831619.328000,-57.8212814
187178761.600000,-58.0482254
187525903.872000,-58.2901688
187873046.144000,-58.4564018
188220188.416000,-58.7649918
188567330.688000,-59.1230316
188914472.960000,-59.2229156
189261615.232000,-59.4641914
189608757.504000,-59.8559456
189955899.776000,-60.0126877
190303042.048000,-59.9769211
190650184.320000,-60.2392006
190997326.592000,-60.0005226
191344468.864000,-60.0626373
191691611.136000,-59.8621712
192038753.408000,-59.5416679
192385895.680000,-59.1831703
192733037.952000,-58.8323936
193080180.224000,-58.2787933
193427322.496000,-57.7446899
193774464.768000,-57.3558846
194121607.040000,-56.5951805
194468749.312000,-56.0072441
194815891.584000,-55.4517288
195163033.856000,-54.6147079
195510176.128000,-53.8712654
195857318.400000,-53.0704765
196204460.672000,-52.3037987
196551602.944000,-51.5197067
196898745.216000,-50.5765343
197245887.488000,-49.8184853
197593029.760000,-49.0002251
197940172.032000,-48.128006
198287314.304000,-47.3790512
198634456.576000,-46.7602234
198981598.848000,-46.1452942
199328741.120000,-45.6195641
199675883.392000,-45.2879219
200023025.664000,-45.0035553
200370167.936000,-44.8327408
200717310.208000,-44.7841835
201064452.480000,-44.811058
201411594.752000,-44.9100761
201758737.024000,-44.9647446
202105879.296000,-45.1924095
202453021.568000,-45.3880539
202800163.840000,-45.5070267
203147306.112000,-45.7391434
203494448.384000,-45.9039154
203841590.656000,-46.0805473
204188732.928000,-46.2031441
204535875.200000,-46.3096848
204883017.472000,-46.507515
205230159.744000,-46.6235657
205577302.016000,-46.6451187
205924444.288000,-46.8659935
206271586.560000,-46.9718666
206618728.832000,-47.0088158
206965871.104000,-47.1761627
207313013.376000,-47.3463669
207660155.648000,-47.4121323
208007297.920000,-47.574604
208354440.192000,-47.7003212
208701582.464000,-47.9067879
209048724.736000,-48.0043144
209395867.008000,-48.1336098
209743009.280000,-48.3668365
210090151.552000,-48.5104446
210437293.824000,-48.6170998
210784436.096000,-48.8027382
211131578.368000,-49.0967712
211478720.640000,-49.2988052
211825862.912000,-49.4912453
212173005.184000,-49.7474556
212520147.456000,-49.9424057
212867289.728000,-50.0647469
213214432.000000,-50.4193802
213561574.272000,-50.6437454
213908716.544000,-50.9272346
214255858.816000,-51.1903152
214603001.088000,-51.3978996
214950143.360000,-51.69384
215297285.632000,-52.0062141
215644427.904000,-52.3016281
215991570.176000,-52.5981255
216338712.448000,-52.922287
216685854.720000,-53.2291565
217032996.992000,-53.4695015
217380139.264000,-54.1198082
217727281.536000,-54.5379143
218074423.808000,-54.8698044
218421566.080000,-55.5088882
218768708.352000,-56.224556
219115850.624000,-56.5516319
219462992.896000,-57.2424431
219810135.168000,-57.9704781
220157277.440000,-58.6498222
220504419.712000,-58.9682884
220851561.984000,-59.288105
221198704.256000,-59.2665596
221545846.528000,-58.6907501
221892988.800000,-57.9244118
222240131.072000,-56.7189217
222587273.344000,-55.5921898
222934415.616000,-54.3928413
223281557.888000,-53.0588341
223628700.160000,-52.0910072
223975842.432000,-51.1866875
224322984.704000,-50.2412758
224670126.976000,-49.4257317
225017269.248000,-48.7343559
225364411.520000,-48.0037498
225711553.792000,-47.3305435
226058696.064000,-46.7715225
226405838.336000,-46.2790298
226752980.608000,-45.7632294
227100122.880000,-45.3478394
227447265.152000,-44.910038
227794407.424000,-44.4926834
228141549.696000,-44.1438789
228488691.968000,-43.8233833
228835834.240000,-43.5189095
229182976.512000,-43.1551857
229530118.784000,-42.8841095
229877261.056000,-42.6189804
230224403.328000,-42.3151016
230571545.600000,-42.0810852
230918687.872000,-41.8317184
231265830.144000,-41.6104851
231612972.416000,-41.3763695
231960114.688000,-41.1556625
232307256.960000,-40.9963875
232654399.232000,-40.8359146
233001541.504000,-40.6663361
233348683.776000,-40.5056038
233695826.048000,-40.3990135
234042968.320000,-40.2545509
234390110.592000,-40.1593971
234737252.864000,-40.0688286
235084395.136000,-40.0083122
235431537.408000,-39.9382553
235778679.680000,-39.9071083
236125821.952000,-39.9153404
236472964.224000,-39.9069405
236820106.496000,-39.8860626
237167248.768000,-39.9661789
237514391.040000,-40.034359
237861533.312000,-40.0720329
238208675.584000,-40.1563263
238555817.856000,-40.2746201
238902960.128000,-40.4094582
239250102.400000,-40.5041084
239597244.672000,-40.6863289
239944386.944000,-40.8712845
240291529.216000,-41.0262413
240638671.488000,-41.2315559
240985813.760000,-41.4687691
241332956.032000,-41.7379417
241680098.304000,-41.9690819
242027240.576000,-42.2474213
242374382.848000,-42.5672646
242721525.120000,-42.8788452
243068667.392000,-43.1923676
243415809.664000,-43.5523109
243762951.936000,-44.0057335
244110094.208000,-44.3285675
244457236.480000,-44.7355957
244804378.752000,-45.159565
245151521.024000,-45.6355247
245498663.296000,-46.1100693
245845805.568000,-46.5916862
246192947.840000,-47.1392326
246540090.112000,-47.6309891
246887232.384000,-48.2145996
247234374.656000,-48.7523918
247581516.928000,-49.3965569
247928659.200000,-49.8660469
248275801.472000,-50.5372887
248622943.744000,-51.1268272
248970086.016000,-51.6937828
249317228.288000,-52.2813835
249664370.560000,-53.0360756
250011512.832000,-53.5502892
250358655.104000,-54.3447533
250705797.376000,-55.0671844
251052939.648000,-55.6892433
251400081.920000,-56.5432129
251747224.192000,-57.2662621
252094366.464000,-57.883316
252441508.736000,-58.775528
252788651.008000,-59.4872589
253135793.280000,-60.284214
253482935.552000,-60.8724632
253830077.824000,-61.4916458
254177220.096000,-61.623394
254524362.368000,-61.3807793
254871504.640000,-60.7478142
255218646.912000,-60.2537384
255565789.184000,-59.4735947
255912931.456000,-58.3206978
256260073.728000,-57.6237411
256607216.000000,-56.5345078
256954358.272000,-55.4726105
257301500.544000,-54.6409416
257648642.816000,-53.6577568
257995785.088000,-52.759613
258342927.360000,-51.8326836
258690069.632000,-51.0696259
259037211.904000,-50.1411629
259384354.176000,-49.4779778
259731496.448000,-48.6925201
260078638.720000,-47.943512
260425780.992000,-47.2451973
260772923.264000,-46.54953
261120065.536000,-45.9443398
261467207.808000,-45.2158089
261814350.080000,-44.732357
262161492.352000,-44.1542358
262508634.624000,-43.6491241
262855776.896000,-43.086998
263202919.168000,-42.6545601
263550061.440000,-42.2592087
263897203.712000,-41.8504486
264244345.984000,-41.5224419
264591488.256000,-41.2225418
264938630.528000,-41.0067177
265285772.800000,-40.6933784
265632915.072000,-40.51157
265980057.344000,-40.4442978
266327199.616000,-40.2701187
266674341.888000,-40.1575508
267021484.160000,-40.0925713
267368626.432000,-40.0740166
267715768.704000,-40.0293503
268062910.976000,-39.9735489
268410053.248000,-39.9919586
268757195.520000,-40.053112
269104337.792000,-40.0123291
269451480.064000,-40.0732307
269798622.336000,-40.117775
270145764.608000,-40.1807556
270492906.880000,-40.2383156
270840049.152000,-40.3351822
271187191.424000,-40.4296608
271534333.696000,-40.4944763
271881475.968000,-40.5978432
272228618.240000,-40.6834679
272575760.512000,-40.8224525
272922902.784000,-40.9251518
273270045.056000,-41.038765
