Frequency_Hz,Amplitude
39643296.000000,-74.7744827
39990438.272000,-75.2459946
40337580.544000,-75.3987427
40684722.816000,-74.5475006
41031865.088000,-73.8961639
41379007.360000,-74.0221786
41726149.632000,-74.3099747
42073291.904000,-73.7470856
42420434.176000,-73.2366486
42767576.448000,-72.6772766
43114718.720000,-71.5812073
43461860.992000,-70.8711319
43809003.264000,-70.4544144
44156145.536000,-69.2913666
44503287.808000,-67.7915115
44850430.080000,-66.3950653
45197572.352000,-64.8811874
45544714.624000,-63.3900032
45891856.896000,-61.3931313
46238999.168000,-59.4693069
46586141.440000,-56.208416
46933283.712000,-53.0182915
47280425.984000,-51.5115013
47627568.256000,-52.1166573
47974710.528000,-55.0577316
48321852.800000,-58.0018501
48668995.072000,-60.6318359
49016137.344000,-62.6720543
49363279.616000,-64.1116028
49710421.888000,-65.4328995
50057564.160000,-66.0820465
50404706.432000,-67.567688
50751848.704000,-67.9981079
51098990.976000,-69.3638077
51446133.248000,-69.5197678
51793275.520000,-70.3056259
52140417.792000,-69.8276901
52487560.064000,-70.1719437
52834702.336000,-71.3418274
53181844.608000,-71.1022873
53528986.880000,-71.4288406
53876129.152000,-71.1311493
54223271.424000,-70.7076492
54570413.696000,-70.6061707
54917555.968000,-70.9548874
55264698.240000,-71.0397873
55611840.512000,-70.7103043
55958982.784000,-71.0761566
56306125.056000,-71.1062241
56653267.328000,-70.5300522
57000409.600000,-70.8574142
57347551.872000,-70.2728653
57694694.144000,-69.8943405
58041836.416000,-69.7766571
58388978.688000,-69.8178024
58736120.960000,-70.2063293
59083263.232000,-69.6781387
59430405.504000,-69.8964081
59777547.776000,-69.3332977
60124690.048000,-69.8944397
60471832.320000,-69.1377563
60818974.592000,-69.1345596
61166116.864000,-68.7891159
61513259.136000,-69.4294052
61860401.408000,-68.7195053
62207543.680000,-68.5194778
62554685.952000,-68.2319946
62901828.224000,-67.9888916
63248970.496000,-67.3208694
63596112.768000,-68.011528
63943255.040000,-67.9612274
64290397.312000,-67.1759338
64637539.584000,-66.411232
64984681.856000,-66.1321564
65331824.128000,-66.0112457
65678966.400000,-66.0346375
66026108.672000,-64.7753143
66373250.944000,-64.3514252
66720393.216000,-63.4227715
67067535.488000,-62.8369293
67414677.760000,-61.6104469
67761820.032000,-60.8498802
68108962.304000,-59.8259201
68456104.576000,-59.9931793
68803246.848000,-61.5529671
69150389.120000,-63.9760666
69497531.392000,-67.6264954
69844673.664000,-70.9769363
70191815.936000,-73.4795227
70538958.208000,-74.0520172
70886100.480000,-74.3063202
71233242.752000,-75.0050278
71580385.024000,-73.1225281
71927527.296000,-72.6993179
72274669.568000,-73.1070099
72621811.840000,-71.275856
72968954.112000,-72.2843933
73316096.384000,-71.7702026
73663238.656000,-70.7868195
74010380.928000,-70.3406219
74357523.200000,-69.8232269
74704665.472000,-69.8694534
75051807.744000,-69.5586243
75398950.016000,-69.3382187
75746092.288000,-69.2170486
76093234.560000,-69.1657562
76440376.832000,-68.8901138
76787519.104000,-69.3129883
77134661.376000,-68.526062
77481803.648000,-68.6883469
77828945.920000,-68.8332672
78176088.192000,-68.7913437
78523230.464000,-68.8738632
78870372.736000,-69.5905151
79217515.008000,-68.9107513
79564657.280000,-68.9450302
79911799.552000,-69.3816071
80258941.824000,-69.6501694
80606084.096000,-69.3445511
80953226.368000,-69.4936218
81300368.640000,-69.5666351
81647510.912000,-68.9455643
81994653.184000,-69.7953491
82341795.456000,-69.2666473
82688937.728000,-69.290062
83036080.000000,-69.0199738
83383222.272000,-68.640831
83730364.544000,-68.5856323
84077506.816000,-68.0362549
84424649.088000,-68.4271393
84771791.360000,-67.9946136
85118933.632000,-67.5061493
85466075.904000,-67.8093262
85813218.176000,-67.3263779
86160360.448000,-66.640564
86507502.720000,-66.044342
86854644.992000,-66.388176
87201787.264000,-65.5630569
87548929.536000,-65.1542435
87896071.808000,-64.8625793
88243214.080000,-64.6054001
88590356.352000,-63.7836876
88937498.624000,-63.4358292
89284640.896000,-63.0407486
89631783.168000,-63.1437073
89978925.440000,-63.0921631
90326067.712000,-63.1713982
90673209.984000,-63.2712708
91020352.256000,-63.6220322
91367494.528000,-63.9428444
91714636.800000,-64.530777
92061779.072000,-64.256218
92408921.344000,-64.5039215
92756063.616000,-64.8284607
93103205.888000,-65.0420532
93450348.160000,-64.9386444
93797490.432000,-65.4317245
94144632.704000,-65.502533
94491774.976000,-66.2612305
94838917.248000,-66.4517212
95186059.520000,-67.3300247
95533201.792000,-68.0625534
95880344.064000,-67.7313843
96227486.336000,-67.8089981
96574628.608000,-68.4985504
96921770.880000,-69.2990112
97268913.152000,-68.9022675
97616055.424000,-69.1614609
97963197.696000,-68.9481888
98310339.968000,-68.8761978
98657482.240000,-68.8298645
99004624.512000,-68.0544128
99351766.784000,-68.1693573
99698909.056000,-68.6102219
100046051.328000,-68.1800385
100393193.600000,-67.8523254
100740335.872000,-67.5859985
101087478.144000,-67.3122253
101434620.416000,-67.5139618
101781762.688000,-66.7651443
102128904.960000,-65.9699631
102476047.232000,-66.3298645
102823189.504000,-65.5202179
103170331.776000,-65.2515182
103517474.048000,-64.6317368
103864616.320000,-63.9927635
104211758.592000,-63.0242767
104558900.864000,-62.0180664
104906043.136000,-61.0092888
105253185.408000,-60.0292931
105600327.680000,-58.9481316
105947469.952000,-57.718277
106294612.224000,-56.3474045
106641754.496000,-55.0948639
106988896.768000,-53.9984627
107336039.040000,-53.0405388
107683181.312000,-52.2672997
108030323.584000,-51.5700798
108377465.856000,-51.2655182
108724608.128000,-51.1828957
109071750.400000,-51.0930634
109418892.672000,-51.338089
109766034.944000,-51.5842972
110113177.216000,-51.8344994
110460319.488000,-52.04282
110807461.760000,-52.339386
111154604.032000,-52.6955414
111501746.304000,-52.9379616
111848888.576000,-53.1316528
112196030.848000,-53.2961311
112543173.120000,-53.5876579
112890315.392000,-53.7993164
113237457.664000,-53.9656715
113584599.936000,-54.2174759
113931742.208000,-54.4048309
114278884.480000,-54.532196
114626026.752000,-54.7368507
114973169.024000,-54.9006577
115320311.296000,-55.176487
115667453.568000,-55.3302345
116014595.840000,-55.463604
116361738.112000,-55.744751
116708880.384000,-55.7327309
117056022.656000,-55.8606224
117403164.928000,-56.1565704
117750307.200000,-56.2580032
118097449.472000,-56.3511124
118444591.744000,-56.4698105
118791734.016000,-56.7522469
119138876.288000,-56.6023636
119486018.560000,-56.9116974
119833160.832000,-56.9889603
120180303.104000,-57.3328362
120527445.376000,-57.4120903
120874587.648000,-57.7923737
121221729.920000,-57.9800453
121568872.192000,-58.4728012
121916014.464000,-58.9488182
122263156.736000,-59.585598
122610299.008000,-59.6513939
122957441.280000,-60.0774956
123304583.552000,-60.7744789
123651725.824000,-61.3210449
123998868.096000,-61.4454041
124346010.368000,-61.7953148
124693152.640000,-61.4160118
125040294.912000,-60.7364273
125387437.184000,-61.8924637
125734579.456000,-62.509201
126081721.728000,-62.5429993
126428864.000000,-62.467083
126776006.272000,-62.1786308
127123148.544000,-62.3179474
127470290.816000,-62.434967
127817433.088000,-62.0852051
128164575.360000,-61.5522995
128511717.632000,-61.7867584
128858859.904000,-61.4042397
129206002.176000,-61.3034706
129553144.448000,-61.3398514
129900286.720000,-61.0993652
130247428.992000,-60.5601921
130594571.264000,-60.4638634
130941713.536000,-60.4471207
131288855.808000,-60.3872032
131635998.080000,-60.6966553
131983140.352000,-60.8793106
132330282.624000,-60.9409065
132677424.896000,-61.466053
133024567.168000,-61.9632874
133371709.440000,-62.2877655
133718851.712000,-63.0675926
134065993.984000,-63.6397667
134413136.256000,-63.8900032
134760278.528000,-65.003952
135107420.800000,-65.1117325
135454563.072000,-65.6380081
135801705.344000,-66.2222977
136148847.616000,-66.5578461
136495989.888000,-66.6538696
136843132.160000,-67.1956024
137190274.432000,-66.6224976
137537416.704000,-67.1154556
137884558.976000,-67.1278915
138231701.248000,-67.2810898
138578843.520000,-66.6497879
138925985.792000,-66.59832
139273128.064000,-67.3762665
139620270.336000,-66.8564835
139967412.608000,-66.8497314
140314554.880000,-66.8478012
140661697.152000,-65.9623566
141008839.424000,-65.9004898
141355981.696000,-66.0314026
141703123.968000,-65.2948914
142050266.240000,-65.0752258
142397408.512000,-64.7392731
142744550.784000,-65.0550079
143091693.056000,-64.9380569
143438835.328000,-64.7468033
143785977.600000,-64.2412338
144133119.872000,-64.6918564
144480262.144000,-64.6785126
144827404.416000,-65.0064392
145174546.688000,-65.2217178
145521688.960000,-64.775795
145868831.232000,-64.9444351
146215973.504000,-65.3054276
146563115.776000,-65.6980438
146910258.048000,-66.2184448
147257400.320000,-66.2959824
147604542.592000,-66.7719498
147951684.864000,-67.1583328
148298827.136000,-67.2865601
148645969.408000,-67.8458176
148993111.680000,-68.83461
149340253.952000,-69.2386169
149687396.224000,-68.5667419
150034538.496000,-66.8088913
150381680.768000,-68.4822922
150728823.040000,-70.1784973
151075965.312000,-70.221283
151423107.584000,-71.2532043
151770249.856000,-71.6499405
152117392.128000,-71.9317398
152464534.400000,-72.2753525
152811676.672000,-73.286377
153158818.944000,-72.4717865
153505961.216000,-73.3213348
153853103.488000,-73.9460907
154200245.760000,-74.3707886
154547388.032000,-73.8687057
154894530.304000,-73.6899796
155241672.576000,-74.6061478
155588814.848000,-73.9678955
155935957.120000,-73.8982544
156283099.392000,-73.5686188
156630241.664000,-74.4891434
156977383.936000,-73.6264648
157324526.208000,-73.9989548
157671668.480000,-73.2539978
158018810.752000,-72.9528809
158365953.024000,-72.7978592
158713095.296000,-72.2510452
159060237.568000,-72.1472321
159407379.840000,-71.6169586
159754522.112000,-71.5229416
160101664.384000,-71.4035034
160448806.656000,-71.099968
160795948.928000,-70.2259521
161143091.200000,-70.6748123
161490233.472000,-70.0112305
161837375.744000,-70.1175461
162184518.016000,-69.5988693
162531660.288000,-69.007164
162878802.560000,-68.8032761
163225944.832000,-68.6656952
163573087.104000,-69.0474091
163920229.376000,-68.6089325
164267371.648000,-68.2851105
164614513.920000,-67.6668701
164961656.192000,-67.3269043
165308798.464000,-67.6086121
165655940.736000,-67.1949234
166003083.008000,-66.5497208
166350225.280000,-66.8356857
166697367.552000,-66.4940338
167044509.824000,-66.5866547
167391652.096000,-66.3249435
167738794.368000,-65.6520538
168085936.640000,-65.1170959
168433078.912000,-65.0823822
168780221.184000,-64.9897156
169127363.456000,-64.1829681
169474505.728000,-64.4122925
169821648.000000,-64.2015305
170168790.272000,-63.9967995
170515932.544000,-63.0695496
170863074.816000,-63.1948624
171210217.088000,-62.7149849
171557359.360000,-62.6889267
171904501.632000,-62.2503586
172251643.904000,-61.6309357
172598786.176000,-61.355217
172945928.448000,-61.0691719
173293070.720000,-60.5622635
173640212.992000,-60.2547722
173987355.264000,-59.9476242
174334497.536000,-59.7290039
174681639.808000,-59.3023224
175028782.080000,-59.1396141
175375924.352000,-58.6682053
175723066.624000,-58.3249893
176070208.896000,-58.0717392
176417351.168000,-57.8234215
176764493.440000,-57.309124
177111635.712000,-57.3559341
177458777.984000,-57.2236977
177805920.256000,-57.030323
178153062.528000,-56.7117691
178500204.800000,-56.6409645
178847347.072000,-56.5436821
179194489.344000,-56.3660927
179541631.616000,-56.4170341
179888773.888000,-56.3945274
180235916.160000,-56.2159081
180583058.432000,-56.2023849
180930200.704000,-56.191143
181277342.976000,-56.252758
181624485.248000,-56.1745491
181971627.520000,-56.0881577
182318769.792000,-56.2376213
182665912.064000,-56.1911087
183013054.336000,-56.3282928
183360196.608000,-56.3653145
183707338.880000,-56.4606171
184054481.152000,-56.5183563
184401623.424000,-56.6073799
184748765.696000,-56.6926193
185095907.968000,-56.7846794
185443050.240000,-57.0187149
185790192.512000,-57.1455994
186137334.784000,-57.3923111
186484477.056000,-57.6921921
186831619.328000,-57.7525215
187178761.600000,-58.0925751
187525903.872000,-58.2868118
187873046.144000,-58.5884171
188220188.416000,-58.7397537
188567330.688000,-58.9732246
188914472.960000,-59.534771
189261615.232000,-59.747612
189608757.504000,-59.6325722
189955899.776000,-60.0011864
190303042.048000,-60.2637177
190650184.320000,-60.1760063
190997326.592000,-60.2625046
191344468.864000,-60.0799141
191691611.136000,-59.8532181
192038753.408000,-59.5781479
192385895.680000,-59.2240143
192733037.952000,-58.9113121
193080180.224000,-58.3394852
193427322.496000,-57.6971855
193774464.768000,-57.3392792
194121607.040000,-56.7251091
194468749.312000,-55.9637451
194815891.584000,-55.3325577
195163033.856000,-54.5512505
195510176.128000,-53.853447
195857318.400000,-52.969532
196204460.672000,-52.2264442
196551602.944000,-51.5436401
196898745.216000,-50.5785103
197245887.488000,-49.8008995
197593029.760000,-48.9672012
197940172.032000,-48.1531677
198287314.304000,-47.4326897
198634456.576000,-46.7638969
198981598.848000,-46.1579933
199328741.120000,-45.6545258
199675883.392000,-45.2212448
200023025.664000,-44.974823
200370167.936000,-44.7757187
200717310.208000,-44.8015976
201064452.480000,-44.7845726
201411594.752000,-44.9286804
201758737.024000,-45.0117683
202105879.296000,-45.194149
202453021.568000,-45.4322014
202800163.840000,-45.5530434
203147306.112000,-45.7656898
203494448.384000,-45.9346733
203841590.656000,-46.0165291
204188732.928000,-46.1666641
204535875.200000,-46.2876663
204883017.472000,-46.48629
205230159.744000,-46.5788345
205577302.016000,-46.6766205
205924444.288000,-46.814785
206271586.560000,-46.9639015
206618728.832000,-47.0769081
206965871.104000,-47.1256256
207313013.376000,-47.3130913
207660155.648000,-47.3851013
208007297.920000,-47.5001869
208354440.192000,-47.6500626
208701582.464000,-47.8979645
209048724.736000,-48.0085945
209395867.008000,-48.1588898
209743009.280000,-48.3136749
210090151.552000,-48.476532
210437293.824000,-48.6603088
210784436.096000,-48.7857819
211131578.368000,-48.988163
211478720.640000,-49.2611465
211825862.912000,-49.4036064
212173005.184000,-49.6497154
212520147.456000,-49.9379501
212867289.728000,-50.0994301
213214432.000000,-50.3295326
213561574.272000,-50.6141014
213908716.544000,-50.8459244
214255858.816000,-51.075985
214603001.088000,-51.3807869
214950143.360000,-51.6048012
215297285.632000,-51.9326134
215644427.904000,-52.2660751
215991570.176000,-52.4597168
216338712.448000,-52.9578819
216685854.720000,-53.2131004
217032996.992000,-53.6789284
217380139.264000,-53.9113388
217727281.536000,-54.3561516
218074423.808000,-54.9272652
218421566.080000,-55.4934502
218768708.352000,-55.9259987
219115850.624000,-56.4021378
219462992.896000,-57.1140099
219810135.168000,-57.6853447
220157277.440000,-58.4409752
220504419.712000,-58.8586617
220851561.984000,-59.1795692
221198704.256000,-58.9616089
221545846.528000,-58.4424973
221892988.800000,-57.75951
222240131.072000,-56.680687
222587273.344000,-55.6006622
222934415.616000,-54.2903862
223281557.888000,-53.129055
223628700.160000,-52.0738983
223975842.432000,-51.1541367
224322984.704000,-50.2379074
224670126.976000,-49.4225044
225017269.248000,-48.6574745
225364411.520000,-48.0011749
225711553.792000,-47.3181343
226058696.064000,-46.8326225
226405838.336000,-46.2615089
226752980.608000,-45.7848396
227100122.880000,-45.3292809
227447265.152000,-44.9226189
227794407.424000,-44.4504013
228141549.696000,-44.1327629
228488691.968000,-43.8119659
228835834.240000,-43.4883499
229182976.512000,-43.1467476
229530118.784000,-42.8561707
229877261.056000,-42.5966835
230224403.328000,-42.2993851
230571545.600000,-42.0440941
230918687.872000,-41.8475227
231265830.144000,-41.6176262
231612972.416000,-41.3459282
231960114.688000,-41.1583557
232307256.960000,-40.9806213
232654399.232000,-40.7888756
233001541.504000,-40.6357498
233348683.776000,-40.4955025
233695826.048000,-40.3822823
234042968.320000,-40.2230682
234390110.592000,-40.1626587
234737252.864000,-40.0651436
235084395.136000,-39.9999542
235431537.408000,-39.9085197
235778679.680000,-39.9108925
236125821.952000,-39.8898277
236472964.224000,-39.907196
236820106.496000,-39.8937035
237167248.768000,-39.9497871
237514391.040000,-40.0372734
237861533.312000,-40.0459061
238208675.584000,-40.125988
238555817.856000,-40.2644844
238902960.128000,-40.3919754
239250102.400000,-40.4525528
239597244.672000,-40.654644
239944386.944000,-40.8789406
240291529.216000,-41.0436974
240638671.488000,-41.2227325
240985813.760000,-41.4665947
241332956.032000,-41.7255173
241680098.304000,-41.9167938
242027240.576000,-42.2377396
242374382.848000,-42.6025963
242721525.120000,-42.8427925
243068667.392000,-43.1645279
243415809.664000,-43.5182304
243762951.936000,-43.9061966
244110094.208000,-44.2857628
244457236.480000,-44.7248497
244804378.752000,-45.180687
245151521.024000,-45.6562042
245498663.296000,-46.021328
245845805.568000,-46.5292625
246192947.840000,-47.0417213
246540090.112000,-47.6348724
246887232.384000,-48.1207047
247234374.656000,-48.760273
247581516.928000,-49.3227997
247928659.200000,-49.7914886
248275801.472000,-50.4589386
248622943.744000,-51.0248375
248970086.016000,-51.7764435
249317228.288000,-52.3177185
249664370.560000,-52.9791107
250011512.832000,-53.5285645
250358655.104000,-54.2199593
250705797.376000,-54.9451561
251052939.648000,-55.8477974
251400081.920000,-56.4896431
251747224.192000,-57.2385941
252094366.464000,-58.0372925
252441508.736000,-59.0177498
252788651.008000,-59.4824219
253135793.280000,-60.281517
253482935.552000,-60.995327
253830077.824000,-61.2884407
254177220.096000,-61.7062836
254524362.368000,-61.4045334
254871504.640000,-61.0494308
255218646.912000,-60.1232109
255565789.184000,-59.6286659
255912931.456000,-58.4291763
256260073.728000,-57.6348801
256607216.000000,-56.4544945
256954358.272000,-55.6051636
257301500.544000,-54.4530602
257648642.816000,-53.6300812
257995785.088000,-52.7140846
258342927.360000,-51.8141975
258690069.632000,-51.0829506
259037211.904000,-50.2269859
259384354.176000,-49.4049606
259731496.448000,-48.609108
260078638.720000,-47.8887444
260425780.992000,-47.1440659
260772923.264000,-46.5727234
261120065.536000,-45.866951
261467207.808000,-45.220417
261814350.080000,-44.6637077
262161492.352000,-44.1203804
262508634.624000,-43.5853386
262855776.896000,-43.0697098
263202919.168000,-42.6526871
263550061.440000,-42.2634087
263897203.712000,-41.867981
264244345.984000,-41.5295944
264591488.256000,-41.2463951
264938630.528000,-41.0432167
265285772.800000,-40.7858009
265632915.072000,-40.614006
265980057.344000,-40.5191154
266327199.616000,-40.3614235
266674341.888000,-40.2488785
267021484.160000,-40.2121582
267368626.432000,-40.192482
267715768.704000,-40.150013
268062910.976000,-40.0798645
268410053.248000,-40.1132278
268757195.520000,-40.1563034
269104337.792000,-40.1463776
269451480.064000,-40.1812973
269798622.336000,-40.2615967
270145764.608000,-40.2992096
270492906.880000,-40.3145065
270840049.152000,-40.4217834
271187191.424000,-40.5077019
271534333.696000,-40.5757294
271881475.968000,-40.6278763
272228618.240000,-40.751915
272575760.512000,-40.8717422
272922902.784000,-40.9322548
273270045.056000,-41.0626221
