Frequency_Hz,Amplitude
39643296.000000,-75.7049484
39990438.272000,-74.3822327
40337580.544000,-74.6916275
40684722.816000,-74.8471451
41031865.088000,-74.2831116
41379007.360000,-74.2141571
41726149.632000,-74.1314774
42073291.904000,-73.6888046
42420434.176000,-73.5181808
42767576.448000,-73.2863007
43114718.720000,-71.7368774
43461860.992000,-71.0705872
43809003.264000,-70.2903366
44156145.536000,-69.1989212
44503287.808000,-68.0212708
44850430.080000,-66.6603317
45197572.352000,-64.443428
45544714.624000,-63.2486229
45891856.896000,-61.2714958
46238999.168000,-59.2136879
46586141.440000,-56.3405495
46933283.712000,-53.171051
47280425.984000,-51.3566246
47627568.256000,-52.0914764
47974710.528000,-55.0995064
48321852.800000,-58.0923347
48668995.072000,-60.5337334
49016137.344000,-62.2433701
49363279.616000,-64.1587601
49710421.888000,-65.5868759
50057564.160000,-66.5023346
50404706.432000,-67.2250443
50751848.704000,-68.1209793
51098990.976000,-68.9914932
51446133.248000,-69.3343277
51793275.520000,-70.3371506
52140417.792000,-70.7853317
52487560.064000,-70.3763123
52834702.336000,-71.0378952
53181844.608000,-70.331665
53528986.880000,-70.5336914
53876129.152000,-71.2491608
54223271.424000,-70.8880081
54570413.696000,-71.1658936
54917555.968000,-70.6015015
55264698.240000,-70.4607773
55611840.512000,-70.8332367
55958982.784000,-70.7198181
56306125.056000,-70.8702698
56653267.328000,-70.2801743
57000409.600000,-70.0683289
57347551.872000,-70.6776505
57694694.144000,-69.7264557
58041836.416000,-70.2867203
58388978.688000,-70.1403275
58736120.960000,-70.3398438
59083263.232000,-70.0899048
59430405.504000,-70.166069
59777547.776000,-69.5468826
60124690.048000,-69.1740265
60471832.320000,-68.9918289
60818974.592000,-69.0775528
61166116.864000,-68.8269119
61513259.136000,-68.9945526
61860401.408000,-68.527626
62207543.680000,-68.6566238
62554685.952000,-68.2121964
62901828.224000,-68.3309631
63248970.496000,-67.6151428
63596112.768000,-67.5543365
63943255.040000,-66.8856812
64290397.312000,-66.8040466
64637539.584000,-66.6597672
64984681.856000,-66.7086945
65331824.128000,-65.6728897
65678966.400000,-65.062439
66026108.672000,-65.1515121
66373250.944000,-64.3508759
66720393.216000,-63.5228767
67067535.488000,-63.0271873
67414677.760000,-62.1275368
67761820.032000,-60.6235275
68108962.304000,-59.8659363
68456104.576000,-59.9736595
68803246.848000,-61.3656197
69150389.120000,-64.15625
69497531.392000,-67.5086136
69844673.664000,-71.2919083
70191815.936000,-73.9105148
70538958.208000,-75.0950241
70886100.480000,-75.1957703
71233242.752000,-73.9059982
71580385.024000,-73.3250122
71927527.296000,-72.5546265
72274669.568000,-72.5852661
72621811.840000,-72.3712997
72968954.112000,-71.4440689
73316096.384000,-71.3392792
73663238.656000,-71.1307526
74010380.928000,-70.2112961
74357523.200000,-70.0556641
74704665.472000,-69.6804886
75051807.744000,-69.8297348
75398950.016000,-68.8361359
75746092.288000,-69.0225677
76093234.560000,-69.1544495
76440376.832000,-68.880043
76787519.104000,-68.5288086
77134661.376000,-69.0112152
77481803.648000,-69.3523712
77828945.920000,-69.4605103
78176088.192000,-68.4769135
78523230.464000,-69.0139923
78870372.736000,-68.67173
79217515.008000,-68.5586395
79564657.280000,-68.4218063
79911799.552000,-69.4407959
80258941.824000,-69.5812988
80606084.096000,-69.087326
80953226.368000,-69.0002441
81300368.640000,-68.7467117
81647510.912000,-68.8826752
81994653.184000,-69.4637604
82341795.456000,-69.2575989
82688937.728000,-69.3317795
83036080.000000,-68.8160706
83383222.272000,-68.467659
83730364.544000,-68.2953873
84077506.816000,-68.0370789
84424649.088000,-68.0424042
84771791.360000,-68.4031525
85118933.632000,-67.7015915
85466075.904000,-67.2722855
85813218.176000,-67.3857803
86160360.448000,-66.8187485
86507502.720000,-66.1019592
86854644.992000,-65.6903534
87201787.264000,-65.4858551
87548929.536000,-65.1051178
87896071.808000,-64.6151047
88243214.080000,-64.4637451
88590356.352000,-64.2049179
88937498.624000,-63.5707092
89284640.896000,-63.3130417
89631783.168000,-63.464138
89978925.440000,-63.2283554
90326067.712000,-63.9300308
90673209.984000,-63.8390884
91020352.256000,-63.872921
91367494.528000,-64.198288
91714636.800000,-64.6177368
92061779.072000,-64.393486
92408921.344000,-64.6476822
92756063.616000,-64.9078522
93103205.888000,-65.1185074
93450348.160000,-65.1173172
93797490.432000,-65.3571472
94144632.704000,-65.8001099
94491774.976000,-65.999939
94838917.248000,-66.8827744
95186059.520000,-67.0365143
95533201.792000,-67.6582184
95880344.064000,-68.2382736
96227486.336000,-68.7597275
96574628.608000,-68.7398148
96921770.880000,-68.6673431
97268913.152000,-69.0111694
97616055.424000,-68.5033417
97963197.696000,-68.8765945
98310339.968000,-68.6624374
98657482.240000,-68.4438705
99004624.512000,-68.267952
99351766.784000,-68.2972107
99698909.056000,-68.0438156
100046051.328000,-68.2271194
100393193.600000,-67.9196396
100740335.872000,-67.2315292
101087478.144000,-67.2503967
101434620.416000,-66.7719879
101781762.688000,-66.4580536
102128904.960000,-66.7779541
102476047.232000,-66.1402817
102823189.504000,-65.6100998
103170331.776000,-65.087822
103517474.048000,-64.4395981
103864616.320000,-63.8502846
104211758.592000,-63.0837631
104558900.864000,-61.8978996
104906043.136000,-61.2773857
105253185.408000,-59.9618034
105600327.680000,-58.7102242
105947469.952000,-57.5931015
106294612.224000,-56.3887711
106641754.496000,-55.1014786
106988896.768000,-53.8083801
107336039.040000,-52.8550529
107683181.312000,-52.0087166
108030323.584000,-51.3966179
108377465.856000,-51.1176224
108724608.128000,-50.9858475
109071750.400000,-51.0873756
109418892.672000,-51.1194954
109766034.944000,-51.3622742
110113177.216000,-51.7220459
110460319.488000,-51.9202423
110807461.760000,-52.2269897
111154604.032000,-52.5223923
111501746.304000,-52.7124863
111848888.576000,-52.9624596
112196030.848000,-53.2888184
112543173.120000,-53.5017853
112890315.392000,-53.6941147
113237457.664000,-53.8776283
113584599.936000,-54.1653862
113931742.208000,-54.3848572
114278884.480000,-54.4784622
114626026.752000,-54.6687737
114973169.024000,-54.9740982
115320311.296000,-55.2292671
115667453.568000,-55.2207794
116014595.840000,-55.7377739
116361738.112000,-55.6770477
116708880.384000,-55.999939
117056022.656000,-56.0304222
117403164.928000,-56.2779617
117750307.200000,-56.548996
118097449.472000,-56.6354332
118444591.744000,-56.8573227
118791734.016000,-57.2186394
119138876.288000,-57.3355904
119486018.560000,-57.4479485
119833160.832000,-57.7787666
120180303.104000,-58.0092201
120527445.376000,-58.2083359
120874587.648000,-58.4930649
121221729.920000,-58.8250694
121568872.192000,-59.1711121
121916014.464000,-59.2470779
122263156.736000,-59.8384895
122610299.008000,-59.9259529
122957441.280000,-60.3723564
123304583.552000,-60.6872597
123651725.824000,-60.8212471
123998868.096000,-61.1549644
124346010.368000,-61.3621445
124693152.640000,-61.0379829
125040294.912000,-59.6855392
125387437.184000,-61.040947
125734579.456000,-61.8634224
126081721.728000,-61.9691277
126428864.000000,-62.1126747
126776006.272000,-61.7305641
127123148.544000,-61.6492996
127470290.816000,-61.6341782
127817433.088000,-61.3244438
128164575.360000,-61.3489151
128511717.632000,-61.3735237
128858859.904000,-61.1986275
129206002.176000,-60.6873322
129553144.448000,-60.680645
129900286.720000,-60.4760132
130247428.992000,-60.2206039
130594571.264000,-60.2551575
130941713.536000,-60.2977486
131288855.808000,-60.5411377
131635998.080000,-60.7701912
131983140.352000,-60.6015015
132330282.624000,-61.3012047
132677424.896000,-62.0037537
133024567.168000,-62.436512
133371709.440000,-63.0598488
133718851.712000,-63.3856621
134065993.984000,-64.3156738
134413136.256000,-64.9759293
134760278.528000,-65.2125092
135107420.800000,-66.0298538
135454563.072000,-66.2008743
135801705.344000,-67.0260162
136148847.616000,-67.0664291
136495989.888000,-67.7122955
136843132.160000,-67.8276367
137190274.432000,-67.6970367
137537416.704000,-67.6388931
137884558.976000,-67.7193832
138231701.248000,-67.7185059
138578843.520000,-68.1072922
138925985.792000,-68.1612396
139273128.064000,-67.0824203
139620270.336000,-67.3760147
139967412.608000,-67.2089005
140314554.880000,-66.2827835
140661697.152000,-65.8185196
141008839.424000,-65.7076492
141355981.696000,-65.7551193
141703123.968000,-65.1928482
142050266.240000,-64.8931046
142397408.512000,-64.6400452
142744550.784000,-64.7329788
143091693.056000,-64.205162
143438835.328000,-64.2928009
143785977.600000,-64.7037506
144133119.872000,-64.1209641
144480262.144000,-64.3763351
144827404.416000,-64.6984253
145174546.688000,-64.9931335
145521688.960000,-64.6662292
145868831.232000,-64.6663895
146215973.504000,-65.3859253
146563115.776000,-65.5587997
146910258.048000,-65.8373032
147257400.320000,-66.1116638
147604542.592000,-66.2755051
147951684.864000,-66.9686356
148298827.136000,-67.5148468
148645969.408000,-67.7142792
148993111.680000,-67.4088898
149340253.952000,-68.25354
149687396.224000,-68.3627472
150034538.496000,-66.6940994
150381680.768000,-69.2997284
150728823.040000,-70.2818222
151075965.312000,-70.2886734
151423107.584000,-71.1104813
151770249.856000,-71.9767609
152117392.128000,-72.356041
152464534.400000,-71.7667923
152811676.672000,-73.7818375
153158818.944000,-73.7540894
153505961.216000,-74.0571289
153853103.488000,-73.8362503
154200245.760000,-73.8291473
154547388.032000,-73.9819336
154894530.304000,-73.8243866
155241672.576000,-74.2691422
155588814.848000,-75.6196899
155935957.120000,-74.276123
156283099.392000,-74.4021606
156630241.664000,-74.3411713
156977383.936000,-73.4370499
157324526.208000,-74.0217438
157671668.480000,-73.0330811
158018810.752000,-73.2087097
158365953.024000,-72.9809875
158713095.296000,-72.3494644
159060237.568000,-72.0019531
159407379.840000,-71.9869537
159754522.112000,-71.6138763
160101664.384000,-71.3438492
160448806.656000,-70.8492203
160795948.928000,-70.2770004
161143091.200000,-70.297905
161490233.472000,-69.7991867
161837375.744000,-69.6773529
162184518.016000,-69.5390854
162531660.288000,-68.6820221
162878802.560000,-69.0641403
163225944.832000,-68.4868622
163573087.104000,-68.3276749
163920229.376000,-68.2095032
164267371.648000,-67.9323654
164614513.920000,-67.7418747
164961656.192000,-67.4707642
165308798.464000,-67.107338
165655940.736000,-67.1843414
166003083.008000,-66.8151016
166350225.280000,-66.3746109
166697367.552000,-66.9667969
167044509.824000,-66.4393616
167391652.096000,-66.0026474
167738794.368000,-65.2913361
168085936.640000,-65.2378311
168433078.912000,-65.235817
168780221.184000,-64.7241669
169127363.456000,-64.4534683
169474505.728000,-64.3730011
169821648.000000,-63.8072891
170168790.272000,-63.7949333
170515932.544000,-63.4442749
170863074.816000,-63.0170593
171210217.088000,-62.6531143
171557359.360000,-62.2071762
171904501.632000,-62.2318535
172251643.904000,-61.8510056
172598786.176000,-61.4297752
172945928.448000,-61.061409
173293070.720000,-60.4857979
173640212.992000,-60.1904488
173987355.264000,-59.8936729
174334497.536000,-59.5873756
174681639.808000,-59.2808723
175028782.080000,-59.0312614
175375924.352000,-58.5986061
175723066.624000,-58.5020523
176070208.896000,-58.2167473
176417351.168000,-57.9509811
176764493.440000,-57.3708229
177111635.712000,-57.3185616
177458777.984000,-57.2427788
177805920.256000,-57.024086
178153062.528000,-56.9602737
178500204.800000,-56.7517204
178847347.072000,-56.6232185
179194489.344000,-56.4135628
179541631.616000,-56.3670158
179888773.888000,-56.3897972
180235916.160000,-56.2497177
180583058.432000,-56.1509514
180930200.704000,-56.2322731
181277342.976000,-56.2436752
181624485.248000,-56.1666374
181971627.520000,-56.3311882
182318769.792000,-56.2519989
182665912.064000,-56.3241119
183013054.336000,-56.242012
183360196.608000,-56.3769722
183707338.880000,-56.4925117
184054481.152000,-56.5598488
184401623.424000,-56.5794411
184748765.696000,-56.8582306
185095907.968000,-56.9411888
185443050.240000,-56.8477402
185790192.512000,-57.2393646
186137334.784000,-57.2859688
186484477.056000,-57.6002426
186831619.328000,-57.8203125
187178761.600000,-57.9159622
187525903.872000,-58.3137093
187873046.144000,-58.569294
188220188.416000,-58.815979
188567330.688000,-59.0285568
188914472.960000,-59.2568321
189261615.232000,-59.6868515
189608757.504000,-59.7349968
189955899.776000,-60.0171165
190303042.048000,-60.1012611
190650184.320000,-60.1822548
190997326.592000,-60.1351585
191344468.864000,-60.1308632
191691611.136000,-59.9720039
192038753.408000,-59.5179901
192385895.680000,-59.4098625
192733037.952000,-58.6855812
193080180.224000,-58.4195824
193427322.496000,-57.8505516
193774464.768000,-57.4133224
194121607.040000,-56.7524605
194468749.312000,-56.0584869
194815891.584000,-55.2413712
195163033.856000,-54.6574402
195510176.128000,-53.8865013
195857318.400000,-53.0828819
196204460.672000,-52.2050438
196551602.944000,-51.375576
196898745.216000,-50.7052422
197245887.488000,-49.8336182
197593029.760000,-48.9551277
197940172.032000,-48.1351585
198287314.304000,-47.4270973
198634456.576000,-46.812355
198981598.848000,-46.1418343
199328741.120000,-45.6434479
199675883.392000,-45.3101463
200023025.664000,-44.9859428
200370167.936000,-44.8192101
200717310.208000,-44.8104172
201064452.480000,-44.8419418
201411594.752000,-44.9331741
201758737.024000,-45.0475998
202105879.296000,-45.2110176
202453021.568000,-45.3420525
202800163.840000,-45.5545235
203147306.112000,-45.7286186
203494448.384000,-45.8898621
203841590.656000,-46.1025238
204188732.928000,-46.1973877
204535875.200000,-46.3302116
204883017.472000,-46.4777298
205230159.744000,-46.5952797
205577302.016000,-46.6850662
205924444.288000,-46.8901939
206271586.560000,-46.9577751
206618728.832000,-47.1112518
206965871.104000,-47.2080688
207313013.376000,-47.328434
207660155.648000,-47.4949265
208007297.920000,-47.5256348
208354440.192000,-47.7459526
208701582.464000,-47.8884926
209048724.736000,-48.0159645
209395867.008000,-48.1516647
209743009.280000,-48.4111977
210090151.552000,-48.5732002
210437293.824000,-48.689743
210784436.096000,-48.8642616
211131578.368000,-49.0729828
211478720.640000,-49.2315559
211825862.912000,-49.4298782
212173005.184000,-49.7625999
212520147.456000,-49.9460945
212867289.728000,-50.1684036
213214432.000000,-50.3610573
213561574.272000,-50.6553802
213908716.544000,-50.8730812
214255858.816000,-51.1630898
214603001.088000,-51.4082947
214950143.360000,-51.6599159
215297285.632000,-52.0320854
215644427.904000,-52.2051315
215991570.176000,-52.6608925
216338712.448000,-53.0090179
216685854.720000,-53.2332077
217032996.992000,-53.7031059
217380139.264000,-54.1700211
217727281.536000,-54.4042053
218074423.808000,-54.9845123
218421566.080000,-55.3934822
218768708.352000,-56.1124687
219115850.624000,-56.6132507
219462992.896000,-57.1466827
219810135.168000,-58.0581856
220157277.440000,-58.7564735
220504419.712000,-58.9460907
220851561.984000,-59.2235146
221198704.256000,-59.1989746
221545846.528000,-58.7181206
221892988.800000,-57.8007965
222240131.072000,-56.7759171
222587273.344000,-55.5257874
222934415.616000,-54.2678795
223281557.888000,-53.0907364
223628700.160000,-52.2336311
223975842.432000,-51.0893707
224322984.704000,-50.2489243
224670126.976000,-49.5031967
225017269.248000,-48.6811066
225364411.520000,-47.9832611
225711553.792000,-47.3978348
226058696.064000,-46.8452072
226405838.336000,-46.2097282
226752980.608000,-45.7695694
227100122.880000,-45.3493767
227447265.152000,-44.9390793
227794407.424000,-44.4816322
228141549.696000,-44.1514587
228488691.968000,-43.8159294
228835834.240000,-43.5156174
229182976.512000,-43.1176758
229530118.784000,-42.8455658
229877261.056000,-42.6140099
230224403.328000,-42.2977371
230571545.600000,-42.0617142
230918687.872000,-41.8469543
231265830.144000,-41.6157951
231612972.416000,-41.3395309
231960114.688000,-41.1795502
232307256.960000,-40.9994812
232654399.232000,-40.8257561
233001541.504000,-40.6607361
233348683.776000,-40.5028648
233695826.048000,-40.387249
234042968.320000,-40.2162056
234390110.592000,-40.1196785
234737252.864000,-40.0540047
235084395.136000,-39.9747047
235431537.408000,-39.9162903
235778679.680000,-39.9299355
236125821.952000,-39.90522
236472964.224000,-39.8981018
236820106.496000,-39.8894577
237167248.768000,-39.9431572
237514391.040000,-40.0428314
237861533.312000,-40.0465927
238208675.584000,-40.1518517
238555817.856000,-40.2592125
238902960.128000,-40.4003983
239250102.400000,-40.5014534
239597244.672000,-40.6651382
239944386.944000,-40.8613243
240291529.216000,-41.0297165
240638671.488000,-41.2274742
240985813.760000,-41.4561806
241332956.032000,-41.7543488
241680098.304000,-41.9854965
242027240.576000,-42.2135506
242374382.848000,-42.5726814
242721525.120000,-42.8855515
243068667.392000,-43.2137718
243415809.664000,-43.5706558
243762951.936000,-43.9598122
244110094.208000,-44.3100204
244457236.480000,-44.7404861
244804378.752000,-45.1726418
245151521.024000,-45.6409912
245498663.296000,-46.110218
245845805.568000,-46.6617317
246192947.840000,-47.1478882
246540090.112000,-47.6140823
246887232.384000,-48.1168289
247234374.656000,-48.6858521
247581516.928000,-49.3126373
247928659.200000,-49.8826218
248275801.472000,-50.5157509
248622943.744000,-51.1531677
248970086.016000,-51.6954651
249317228.288000,-52.3162422
249664370.560000,-52.9569054
250011512.832000,-53.561161
250358655.104000,-54.3450012
250705797.376000,-54.950676
251052939.648000,-55.8858986
251400081.920000,-56.5390663
251747224.192000,-57.0025826
252094366.464000,-57.9889336
252441508.736000,-58.9062729
252788651.008000,-59.6025772
253135793.280000,-60.2512932
253482935.552000,-60.7371368
253830077.824000,-61.3168182
254177220.096000,-61.5886917
254524362.368000,-61.412323
254871504.640000,-60.9388962
255218646.912000,-60.3879128
255565789.184000,-59.2721558
255912931.456000,-58.4046516
256260073.728000,-57.596653
256607216.000000,-56.5144424
256954358.272000,-55.5258522
257301500.544000,-54.7080002
257648642.816000,-53.8084946
257995785.088000,-52.8292503
258342927.360000,-51.8146896
258690069.632000,-51.0717163
259037211.904000,-50.153019
259384354.176000,-49.416584
259731496.448000,-48.6772881
260078638.720000,-47.9565048
260425780.992000,-47.1378174
260772923.264000,-46.5226822
261120065.536000,-45.8902855
261467207.808000,-45.2094917
261814350.080000,-44.6731949
262161492.352000,-44.1167946
262508634.624000,-43.6365509
262855776.896000,-43.0596008
263202919.168000,-42.6445503
263550061.440000,-42.2430725
263897203.712000,-41.8554268
264244345.984000,-41.5136642
264591488.256000,-41.2306976
264938630.528000,-40.9626427
265285772.800000,-40.707119
265632915.072000,-40.5346565
265980057.344000,-40.4177971
266327199.616000,-40.3022461
266674341.888000,-40.1613693
267021484.160000,-40.1140404
267368626.432000,-40.0963097
267715768.704000,-40.0598373
268062910.976000,-40.0129662
268410053.248000,-40.0488205
268757195.520000,-40.0664062
269104337.792000,-40.0548592
269451480.064000,-40.0999947
269798622.336000,-40.1472549
270145764.608000,-40.2028732
270492906.880000,-40.2469101
270840049.152000,-40.3339577
271187191.424000,-40.4144287
271534333.696000,-40.5024643
271881475.968000,-40.5434875
272228618.240000,-40.7223358
272575760.512000,-40.8195305
272922902.784000,-40.8979073
