Frequency_Hz,Amplitude
39643296.000000,-75.076828
39990438.272000,-74.8276901
40337580.544000,-75.4294968
40684722.816000,-74.3395844
41031865.088000,-73.7908096
41379007.360000,-74.0034561
41726149.632000,-73.8047333
42073291.904000,-73.5239182
42420434.176000,-73.526535
42767576.448000,-72.3269424
43114718.720000,-72.2587585
43461860.992000,-71.7139053
43809003.264000,-70.9218597
44156145.536000,-69.1540833
44503287.808000,-68.1635056
44850430.080000,-66.7819901
45197572.352000,-65.1104355
45544714.624000,-63.3432159
45891856.896000,-61.6212845
46238999.168000,-59.4318542
46586141.440000,-56.2153931
46933283.712000,-53.1067848
47280425.984000,-51.4232635
47627568.256000,-52.1491051
47974710.528000,-55.1221237
48321852.800000,-58.0540123
48668995.072000,-60.662941
49016137.344000,-62.3192596
49363279.616000,-63.8535385
49710421.888000,-65.5852814
50057564.160000,-66.8408813
50404706.432000,-67.8185501
50751848.704000,-68.5223999
51098990.976000,-69.6053772
51446133.248000,-69.2698746
51793275.520000,-69.9004364
52140417.792000,-70.1958084
52487560.064000,-70.1064682
52834702.336000,-70.5953369
53181844.608000,-70.9200592
53528986.880000,-71.1750717
53876129.152000,-70.8867035
54223271.424000,-71.0611877
54570413.696000,-71.0132141
54917555.968000,-71.2776871
55264698.240000,-71.2916794
55611840.512000,-70.749649
55958982.784000,-70.500412
56306125.056000,-71.1380234
56653267.328000,-70.3048859
57000409.600000,-70.7077103
57347551.872000,-69.5095673
57694694.144000,-70.4608688
58041836.416000,-69.6978683
58388978.688000,-70.17173
58736120.960000,-69.9091644
59083263.232000,-69.1862717
59430405.504000,-69.9199524
59777547.776000,-69.5528259
60124690.048000,-69.8207016
60471832.320000,-69.4018555
60818974.592000,-69.2474899
61166116.864000,-68.5427704
61513259.136000,-68.9376068
61860401.408000,-68.1792068
62207543.680000,-68.6471634
62554685.952000,-68.6518784
62901828.224000,-67.9005127
63248970.496000,-67.9141541
63596112.768000,-67.7935867
63943255.040000,-67.3419342
64290397.312000,-66.8548355
64637539.584000,-66.483345
64984681.856000,-66.1483612
65331824.128000,-66.189827
65678966.400000,-65.3497467
66026108.672000,-64.6648407
66373250.944000,-63.9853249
66720393.216000,-63.5579987
67067535.488000,-62.8397865
67414677.760000,-61.7087097
67761820.032000,-60.8661003
68108962.304000,-60.080864
68456104.576000,-59.91436
68803246.848000,-61.3976822
69150389.120000,-63.7596359
69497531.392000,-67.7807465
69844673.664000,-70.8895264
70191815.936000,-73.0765305
70538958.208000,-74.3241501
70886100.480000,-74.906456
71233242.752000,-74.7124176
71580385.024000,-73.2696075
71927527.296000,-72.3653717
72274669.568000,-72.0985489
72621811.840000,-71.9912338
72968954.112000,-71.210022
73316096.384000,-70.6005783
73663238.656000,-70.8228149
74010380.928000,-69.9756546
74357523.200000,-69.9270401
74704665.472000,-69.59375
75051807.744000,-69.1940231
75398950.016000,-68.7141571
75746092.288000,-69.4704895
76093234.560000,-69.4590073
76440376.832000,-69.2101288
76787519.104000,-69.4362183
77134661.376000,-68.6872025
77481803.648000,-68.7151718
77828945.920000,-68.946312
78176088.192000,-68.5270767
78523230.464000,-68.9085922
78870372.736000,-69.1261292
79217515.008000,-69.3281174
79564657.280000,-68.7243958
79911799.552000,-69.0574265
80258941.824000,-69.1485672
80606084.096000,-68.7479858
80953226.368000,-69.0703735
81300368.640000,-69.0599747
81647510.912000,-68.9550247
81994653.184000,-69.4986877
82341795.456000,-68.3112564
82688937.728000,-69.080452
83036080.000000,-69.4680405
83383222.272000,-69.4941101
83730364.544000,-69.438324
84077506.816000,-68.2756195
84424649.088000,-68.3165207
84771791.360000,-68.3367615
85118933.632000,-67.4112625
85466075.904000,-67.88134
85813218.176000,-66.9831848
86160360.448000,-67.1527557
86507502.720000,-66.7796402
86854644.992000,-65.8400421
87201787.264000,-65.5922546
87548929.536000,-65.3103256
87896071.808000,-64.7976303
88243214.080000,-64.4931641
88590356.352000,-63.9966354
88937498.624000,-63.2860527
89284640.896000,-63.2165871
89631783.168000,-63.0590172
89978925.440000,-62.9243889
90326067.712000,-62.993885
90673209.984000,-63.3291969
91020352.256000,-63.267128
91367494.528000,-63.8635483
91714636.800000,-63.9738426
92061779.072000,-64.146759
92408921.344000,-64.8940887
92756063.616000,-64.4281998
93103205.888000,-65.0941238
93450348.160000,-64.6604156
93797490.432000,-65.8394775
94144632.704000,-65.4707718
94491774.976000,-66.0957184
94838917.248000,-66.3638229
95186059.520000,-66.7540817
95533201.792000,-67.427887
95880344.064000,-68.2011185
96227486.336000,-68.1838074
96574628.608000,-68.1789474
96921770.880000,-68.9312134
97268913.152000,-68.410675
97616055.424000,-69.5756683
97963197.696000,-69.1623459
98310339.968000,-68.8092957
98657482.240000,-68.6459274
99004624.512000,-68.2316513
99351766.784000,-67.8178482
99698909.056000,-68.1803436
100046051.328000,-68.0277634
100393193.600000,-67.4466019
100740335.872000,-67.3650131
101087478.144000,-67.3388596
101434620.416000,-67.2853546
101781762.688000,-66.9010773
102128904.960000,-66.6279449
102476047.232000,-66.0273438
102823189.504000,-65.610527
103170331.776000,-65.1593018
103517474.048000,-64.5781937
103864616.320000,-63.7002068
104211758.592000,-63.1165009
104558900.864000,-62.1490288
104906043.136000,-60.9330101
105253185.408000,-60.0900536
105600327.680000,-58.8778419
105947469.952000,-57.4805145
106294612.224000,-56.3555984
106641754.496000,-55.170166
106988896.768000,-54.0344734
107336039.040000,-52.996273
107683181.312000,-52.2059174
108030323.584000,-51.6582146
108377465.856000,-51.2872925
108724608.128000,-51.2327194
109071750.400000,-51.1636467
109418892.672000,-51.3683853
109766034.944000,-51.6074753
110113177.216000,-51.9425316
110460319.488000,-52.1165352
110807461.760000,-52.3831863
111154604.032000,-52.7339745
111501746.304000,-52.9501495
111848888.576000,-53.1315804
112196030.848000,-53.3000565
112543173.120000,-53.555954
112890315.392000,-53.6558189
113237457.664000,-54.0065422
113584599.936000,-54.2411842
113931742.208000,-54.2585869
114278884.480000,-54.4792366
114626026.752000,-54.6478653
114973169.024000,-55.095562
115320311.296000,-55.0831032
115667453.568000,-55.2301521
116014595.840000,-55.4723434
116361738.112000,-55.6630478
116708880.384000,-55.7449112
117056022.656000,-55.9665833
117403164.928000,-55.8836632
117750307.200000,-56.1834259
118097449.472000,-56.2936707
118444591.744000,-56.3017769
118791734.016000,-56.6016998
119138876.288000,-56.476799
119486018.560000,-56.8541222
119833160.832000,-57.0570946
120180303.104000,-57.2825661
120527445.376000,-57.3072357
120874587.648000,-57.674263
121221729.920000,-58.2175026
121568872.192000,-58.4522209
121916014.464000,-58.7272568
122263156.736000,-59.2911758
122610299.008000,-59.5781822
122957441.280000,-60.0429497
123304583.552000,-60.7298393
123651725.824000,-61.3317108
123998868.096000,-61.6542778
124346010.368000,-62.014576
124693152.640000,-61.6292076
125040294.912000,-60.5595093
125387437.184000,-61.9125214
125734579.456000,-62.7333336
126081721.728000,-62.4793053
126428864.000000,-62.8392868
126776006.272000,-62.5441818
127123148.544000,-62.1472511
127470290.816000,-62.0630226
127817433.088000,-61.9823112
128164575.360000,-61.6564941
128511717.632000,-61.7470665
128858859.904000,-61.5709381
129206002.176000,-61.3846359
129553144.448000,-60.9031448
129900286.720000,-60.8327484
130247428.992000,-60.6534729
130594571.264000,-60.626915
130941713.536000,-60.818531
131288855.808000,-60.3665237
131635998.080000,-60.6400185
131983140.352000,-60.7719307
132330282.624000,-61.1744423
132677424.896000,-61.4744759
133024567.168000,-62.0348587
133371709.440000,-62.0765495
133718851.712000,-63.1893539
134065993.984000,-63.5024071
134413136.256000,-64.1225662
134760278.528000,-64.627327
135107420.800000,-64.8532028
135454563.072000,-65.3481369
135801705.344000,-65.5402679
136148847.616000,-66.0651093
136495989.888000,-66.5107727
136843132.160000,-66.4357834
137190274.432000,-66.8515854
137537416.704000,-66.7265625
137884558.976000,-66.8729401
138231701.248000,-66.4427414
138578843.520000,-67.176384
138925985.792000,-67.0798187
139273128.064000,-66.9020996
139620270.336000,-67.260704
139967412.608000,-66.3297119
140314554.880000,-66.3574524
140661697.152000,-65.7562332
141008839.424000,-66.0500107
141355981.696000,-65.3961029
141703123.968000,-65.3677063
142050266.240000,-65.2190018
142397408.512000,-64.6205139
142744550.784000,-64.8355713
143091693.056000,-64.4111176
143438835.328000,-64.5479889
143785977.600000,-64.2109756
144133119.872000,-64.3953094
144480262.144000,-64.4977188
144827404.416000,-64.077034
145174546.688000,-64.5357437
145521688.960000,-65.4228516
145868831.232000,-65.4075699
146215973.504000,-65.372139
146563115.776000,-65.628418
146910258.048000,-66.0209885
147257400.320000,-66.6850433
147604542.592000,-66.8048859
147951684.864000,-67.0390396
148298827.136000,-66.9248734
148645969.408000,-67.8612442
148993111.680000,-68.5561371
149340253.952000,-68.6833954
149687396.224000,-68.0559998
150034538.496000,-66.5770874
150381680.768000,-68.8087158
150728823.040000,-69.7246094
151075965.312000,-71.3550644
151423107.584000,-71.4327698
151770249.856000,-71.5817032
152117392.128000,-73.4066162
152464534.400000,-72.8036346
152811676.672000,-73.2341309
153158818.944000,-73.0935135
153505961.216000,-73.660965
153853103.488000,-72.9058075
154200245.760000,-73.0047455
154547388.032000,-74.1358719
154894530.304000,-74.4358215
155241672.576000,-72.9697571
155588814.848000,-73.6929245
155935957.120000,-73.6287384
156283099.392000,-73.4505615
156630241.664000,-73.9641342
156977383.936000,-73.5540848
157324526.208000,-73.8099594
157671668.480000,-72.5949554
158018810.752000,-73.0847168
158365953.024000,-72.2971802
158713095.296000,-72.4311752
159060237.568000,-71.9104233
159407379.840000,-71.9653778
159754522.112000,-71.3632965
160101664.384000,-70.6892548
160448806.656000,-70.522789
160795948.928000,-70.72966
161143091.200000,-70.5025864
161490233.472000,-69.6425323
161837375.744000,-69.5646439
162184518.016000,-69.0956802
162531660.288000,-68.9459
162878802.560000,-68.0604095
163225944.832000,-69.0080948
163573087.104000,-68.6006165
163920229.376000,-67.8627777
164267371.648000,-67.7408066
164614513.920000,-67.7174606
164961656.192000,-67.5664215
165308798.464000,-67.3945618
165655940.736000,-67.26091
166003083.008000,-67.1187439
166350225.280000,-66.5310135
166697367.552000,-67.0047607
167044509.824000,-65.9304123
167391652.096000,-66.0929871
167738794.368000,-65.7666245
168085936.640000,-65.341774
168433078.912000,-65.1023407
168780221.184000,-64.9398956
169127363.456000,-64.6679382
169474505.728000,-64.0974655
169821648.000000,-64.0186691
170168790.272000,-63.8286018
170515932.544000,-63.4646416
170863074.816000,-63.1937714
171210217.088000,-62.7454948
171557359.360000,-62.58395
171904501.632000,-62.1838837
172251643.904000,-61.7276382
172598786.176000,-61.5330696
172945928.448000,-61.0169945
173293070.720000,-60.721653
173640212.992000,-60.3340073
173987355.264000,-59.979866
174334497.536000,-59.7216721
174681639.808000,-59.3690529
175028782.080000,-58.8952293
175375924.352000,-58.6184616
175723066.624000,-58.2710114
176070208.896000,-58.1252022
176417351.168000,-57.7853737
176764493.440000,-57.3843842
177111635.712000,-57.225914
177458777.984000,-57.084713
177805920.256000,-57.0019836
178153062.528000,-56.7089081
178500204.800000,-56.6731071
178847347.072000,-56.6412659
179194489.344000,-56.4128761
179541631.616000,-56.345932
179888773.888000,-56.2358513
180235916.160000,-56.216114
180583058.432000,-56.264576
180930200.704000,-56.2168617
181277342.976000,-56.3044281
181624485.248000,-56.2158051
181971627.520000,-56.2295456
182318769.792000,-56.2127266
182665912.064000,-56.225174
183013054.336000,-56.1543312
183360196.608000,-56.3294983
183707338.880000,-56.5210304
184054481.152000,-56.5838585
184401623.424000,-56.6325722
184748765.696000,-56.6856461
185095907.968000,-56.7194366
185443050.240000,-56.8791847
185790192.512000,-57.0912247
186137334.784000,-57.3607903
186484477.056000,-57.4263573
186831619.328000,-57.7998848
187178761.600000,-57.8471832
187525903.872000,-58.2718544
187873046.144000,-58.3646965
188220188.416000,-58.6274948
188567330.688000,-59.1488914
188914472.960000,-59.1587982
189261615.232000,-59.6014595
189608757.504000,-59.6606178
189955899.776000,-59.8670349
190303042.048000,-59.9458961
190650184.320000,-60.0910683
190997326.592000,-60.139431
191344468.864000,-60.1042595
191691611.136000,-59.7513733
192038753.408000,-59.4717445
192385895.680000,-59.2163239
192733037.952000,-58.7699623
193080180.224000,-58.1858864
193427322.496000,-57.902565
193774464.768000,-57.2675858
194121607.040000,-56.6736946
194468749.312000,-56.0238075
194815891.584000,-55.313755
195163033.856000,-54.5282631
195510176.128000,-53.8659859
195857318.400000,-52.9640808
196204460.672000,-52.2205315
196551602.944000,-51.3233185
196898745.216000,-50.5557556
197245887.488000,-49.7530441
197593029.760000,-48.9318542
197940172.032000,-48.0341339
198287314.304000,-47.368454
198634456.576000,-46.6826134
198981598.848000,-46.0874596
199328741.120000,-45.5750389
199675883.392000,-45.2073631
200023025.664000,-44.9452057
200370167.936000,-44.8022919
200717310.208000,-44.7141838
201064452.480000,-44.7989731
201411594.752000,-44.8899155
201758737.024000,-44.9574471
202105879.296000,-45.1425133
202453021.568000,-45.3415833
202800163.840000,-45.4677467
203147306.112000,-45.6960526
203494448.384000,-45.8566856
203841590.656000,-46.0084877
204188732.928000,-46.147625
204535875.200000,-46.2753258
204883017.472000,-46.4307899
205230159.744000,-46.6041756
205577302.016000,-46.6389656
205924444.288000,-46.8274956
206271586.560000,-46.9581146
206618728.832000,-47.0016747
206965871.104000,-47.1358185
207313013.376000,-47.2793579
207660155.648000,-47.3926048
208007297.920000,-47.4738731
208354440.192000,-47.7378502
208701582.464000,-47.8487434
209048724.736000,-47.9546814
209395867.008000,-48.1562386
209743009.280000,-48.2616425
210090151.552000,-48.4698334
210437293.824000,-48.5695496
210784436.096000,-48.8245125
211131578.368000,-48.984417
211478720.640000,-49.1690941
211825862.912000,-49.3699493
212173005.184000,-49.6376534
212520147.456000,-49.8924103
212867289.728000,-50.0484619
213214432.000000,-50.2611504
213561574.272000,-50.5330658
213908716.544000,-50.8068237
214255858.816000,-50.9999847
214603001.088000,-51.3255157
214950143.360000,-51.646244
215297285.632000,-51.8732224
215644427.904000,-52.2391701
215991570.176000,-52.495903
216338712.448000,-52.8579292
216685854.720000,-53.2081261
217032996.992000,-53.5177155
217380139.264000,-54.0228729
217727281.536000,-54.4801064
218074423.808000,-54.8361511
218421566.080000,-55.2451935
218768708.352000,-55.982357
219115850.624000,-56.5055809
219462992.896000,-57.1124191
219810135.168000,-57.8110847
220157277.440000,-58.1638031
220504419.712000,-58.8227463
220851561.984000,-58.8979988
221198704.256000,-58.9559555
221545846.528000,-58.700119
221892988.800000,-57.7560883
222240131.072000,-56.6658592
222587273.344000,-55.5806389
222934415.616000,-54.241272
223281557.888000,-53.1582489
223628700.160000,-52.2214241
223975842.432000,-51.1196327
224322984.704000,-50.3368378
224670126.976000,-49.4443588
225017269.248000,-48.7007141
225364411.520000,-47.8846626
225711553.792000,-47.4008446
226058696.064000,-46.804512
226405838.336000,-46.2660103
226752980.608000,-45.8001938
227100122.880000,-45.3616028
227447265.152000,-44.944313
227794407.424000,-44.4838524
228141549.696000,-44.1306419
228488691.968000,-43.7977028
228835834.240000,-43.4970245
229182976.512000,-43.1126404
229530118.784000,-42.8869476
229877261.056000,-42.5769615
230224403.328000,-42.3154068
230571545.600000,-42.0549126
230918687.872000,-41.8353577
231265830.144000,-41.6177101
231612972.416000,-41.3136482
231960114.688000,-41.1669235
232307256.960000,-40.9895363
232654399.232000,-40.7852859
233001541.504000,-40.6557579
233348683.776000,-40.4805031
233695826.048000,-40.3708115
234042968.320000,-40.1948395
234390110.592000,-40.1068497
234737252.864000,-40.0252151
235084395.136000,-39.9816132
235431537.408000,-39.8981972
235778679.680000,-39.8668289
236125821.952000,-39.8894958
236472964.224000,-39.867115
236820106.496000,-39.8536606
237167248.768000,-39.9296303
237514391.040000,-39.9788017
237861533.312000,-40.0138779
238208675.584000,-40.0984268
238555817.856000,-40.2359238
238902960.128000,-40.3453407
239250102.400000,-40.4496231
239597244.672000,-40.6275101
239944386.944000,-40.8169746
240291529.216000,-40.9959946
240638671.488000,-41.164093
240985813.760000,-41.4371185
241332956.032000,-41.705265
241680098.304000,-41.8766403
242027240.576000,-42.172142
242374382.848000,-42.4860878
242721525.120000,-42.7804985
243068667.392000,-43.1083374
243415809.664000,-43.4543648
243762951.936000,-43.8859711
244110094.208000,-44.2236023
244457236.480000,-44.6271248
244804378.752000,-45.0915642
245151521.024000,-45.5129967
245498663.296000,-45.9999962
245845805.568000,-46.5071793
246192947.840000,-47.0546303
246540090.112000,-47.5391159
246887232.384000,-48.0058136
247234374.656000,-48.6498184
247581516.928000,-49.2434731
247928659.200000,-49.7005997
248275801.472000,-50.3904037
248622943.744000,-51.0848198
248970086.016000,-51.6885376
249317228.288000,-52.2484894
249664370.560000,-52.8622627
250011512.832000,-53.4765854
250358655.104000,-54.1521378
250705797.376000,-54.9475937
251052939.648000,-55.6615334
251400081.920000,-56.3696556
251747224.192000,-57.1968155
252094366.464000,-58.0054703
252441508.736000,-58.9348068
252788651.008000,-59.6549911
253135793.280000,-60.3157997
253482935.552000,-60.928009
253830077.824000,-61.7488022
254177220.096000,-61.4690552
254524362.368000,-61.5616798
254871504.640000,-61.0772743
255218646.912000,-60.5059013
255565789.184000,-59.6165924
255912931.456000,-58.3978157
256260073.728000,-57.7051239
256607216.000000,-56.6922302
256954358.272000,-55.5360298
257301500.544000,-54.6515121
257648642.816000,-53.6124229
257995785.088000,-52.7997513
258342927.360000,-51.8932686
258690069.632000,-51.1350822
259037211.904000,-50.1839104
259384354.176000,-49.3822403
259731496.448000,-48.6560593
260078638.720000,-47.8978844
260425780.992000,-47.1032104
260772923.264000,-46.5862999
261120065.536000,-45.9169235
261467207.808000,-45.2534142
261814350.080000,-44.7193413
262161492.352000,-44.1438713
262508634.624000,-43.5797615
262855776.896000,-43.0885086
263202919.168000,-42.6090927
263550061.440000,-42.2531586
263897203.712000,-41.8846664
264244345.984000,-41.5603523
264591488.256000,-41.2481575
264938630.528000,-41.0250359
265285772.800000,-40.780117
265632915.072000,-40.6136932
265980057.344000,-40.4974174
266327199.616000,-40.3709373
266674341.888000,-40.2630043
267021484.160000,-40.1926041
267368626.432000,-40.2015686
267715768.704000,-40.1337776
268062910.976000,-40.0973396
268410053.248000,-40.1273003
268757195.520000,-40.1654739
269104337.792000,-40.1290588
269451480.064000,-40.1724815
269798622.336000,-40.2248383
270145764.608000,-40.2976913
270492906.880000,-40.3220329
270840049.152000,-40.4110718
271187191.424000,-40.4991302
271534333.696000,-40.5634003
271881475.968000,-40.6334801
272228618.240000,-40.7453537
272575760.512000,-40.8736458
272922902.784000,-40.946804
273270045.056000,-41.0393257
