Frequency_Hz,Amplitude
39643296.000000,-74.9673386
39990438.272000,-74.2207794
40337580.544000,-75.2807083
40684722.816000,-74.7912674
41031865.088000,-74.444397
41379007.360000,-74.3487091
41726149.632000,-74.0506439
42073291.904000,-73.5978394
42420434.176000,-73.6348572
42767576.448000,-73.0653229
43114718.720000,-71.6479111
43461860.992000,-70.9931259
43809003.264000,-70.0447769
44156145.536000,-68.8063583
44503287.808000,-67.8152466
44850430.080000,-66.8131027
45197572.352000,-65.0659332
45544714.624000,-63.4002304
45891856.896000,-61.6873589
46238999.168000,-59.3839493
46586141.440000,-56.2384949
46933283.712000,-53.0849342
47280425.984000,-51.4606934
47627568.256000,-52.1101456
47974710.528000,-54.9268379
48321852.800000,-58.0259972
48668995.072000,-60.7059059
49016137.344000,-62.2840004
49363279.616000,-64.1640854
49710421.888000,-65.0720139
50057564.160000,-66.3642349
50404706.432000,-67.3681488
50751848.704000,-69.007637
51098990.976000,-68.8815842
51446133.248000,-68.991806
51793275.520000,-70.4836349
52140417.792000,-69.7417984
52487560.064000,-70.7086411
52834702.336000,-70.9519424
53181844.608000,-71.3292236
53528986.880000,-71.7478867
53876129.152000,-70.4181137
54223271.424000,-70.6315079
54570413.696000,-70.215683
54917555.968000,-71.6808167
55264698.240000,-71.1401062
55611840.512000,-70.8636475
55958982.784000,-70.609581
56306125.056000,-70.4749985
56653267.328000,-70.8248062
57000409.600000,-70.5235825
57347551.872000,-69.956459
57694694.144000,-70.1274261
58041836.416000,-70.2707977
58388978.688000,-70.5417252
58736120.960000,-69.8390579
59083263.232000,-69.6198959
59430405.504000,-70.2988434
59777547.776000,-69.6559067
60124690.048000,-69.5498276
60471832.320000,-69.2095337
60818974.592000,-69.0346527
61166116.864000,-68.891037
61513259.136000,-69.0874863
61860401.408000,-68.6211166
62207543.680000,-68.5855408
62554685.952000,-68.3123322
62901828.224000,-68.1396866
63248970.496000,-67.0544052
63596112.768000,-66.766777
63943255.040000,-67.3747253
64290397.312000,-67.147438
64637539.584000,-66.4978104
64984681.856000,-66.1724396
65331824.128000,-66.2815323
65678966.400000,-65.400444
66026108.672000,-64.9934464
66373250.944000,-64.0584412
66720393.216000,-63.6187019
67067535.488000,-62.9402885
67414677.760000,-61.6728935
67761820.032000,-60.5338936
68108962.304000,-59.9740868
68456104.576000,-59.8684692
68803246.848000,-61.0418892
69150389.120000,-63.9613113
69497531.392000,-67.7158966
69844673.664000,-71.2951584
70191815.936000,-73.8698349
70538958.208000,-74.8477097
70886100.480000,-74.3887787
71233242.752000,-73.8054581
71580385.024000,-73.2321243
71927527.296000,-73.7321167
72274669.568000,-73.3103409
72621811.840000,-71.7554779
72968954.112000,-71.5181198
73316096.384000,-70.8304825
73663238.656000,-70.2363739
74010380.928000,-70.8470688
74357523.200000,-70.1622086
74704665.472000,-70.1842651
75051807.744000,-69.4330673
75398950.016000,-69.1626282
75746092.288000,-69.2312698
76093234.560000,-68.7474213
76440376.832000,-68.614563
76787519.104000,-69.5211639
77134661.376000,-69.2117462
77481803.648000,-69.4093628
77828945.920000,-68.8956528
78176088.192000,-68.7242584
78523230.464000,-68.5297318
78870372.736000,-69.1271515
79217515.008000,-69.4899292
79564657.280000,-68.2233963
79911799.552000,-68.5855942
80258941.824000,-68.9222412
80606084.096000,-69.6514587
80953226.368000,-69.1944504
81300368.640000,-69.2026749
81647510.912000,-68.5668869
81994653.184000,-68.7573166
82341795.456000,-69.4061127
82688937.728000,-68.8251572
83036080.000000,-69.082756
83383222.272000,-69.0351562
83730364.544000,-68.6272583
84077506.816000,-68.3511581
84424649.088000,-68.7768478
84771791.360000,-67.4736633
85118933.632000,-67.9595642
85466075.904000,-67.9001083
85813218.176000,-67.9048843
86160360.448000,-66.5987167
86507502.720000,-66.5473099
86854644.992000,-66.2374878
87201787.264000,-65.6212234
87548929.536000,-65.6904678
87896071.808000,-64.7465057
88243214.080000,-64.3277206
88590356.352000,-63.7169533
88937498.624000,-63.5198059
89284640.896000,-63.3053055
89631783.168000,-62.940033
89978925.440000,-63.0044174
90326067.712000,-63.2901917
90673209.984000,-63.4156914
91020352.256000,-63.3354797
91367494.528000,-64.188652
91714636.800000,-64.0208969
92061779.072000,-64.0744934
92408921.344000,-64.8887482
92756063.616000,-64.7746582
93103205.888000,-64.5821762
93450348.160000,-65.1162949
93797490.432000,-65.4800339
94144632.704000,-65.3079224
94491774.976000,-65.9145889
94838917.248000,-66.335083
95186059.520000,-66.8426819
95533201.792000,-67.1358337
95880344.064000,-68.0657196
96227486.336000,-68.1310425
96574628.608000,-68.3089676
96921770.880000,-68.488266
97268913.152000,-68.5338287
97616055.424000,-68.650383
97963197.696000,-69.1656189
98310339.968000,-68.768013
98657482.240000,-68.6195831
99004624.512000,-68.2594604
99351766.784000,-68.3844376
99698909.056000,-68.1244202
100046051.328000,-67.6686707
100393193.600000,-67.6191177
100740335.872000,-67.5898895
101087478.144000,-67.4079819
101434620.416000,-66.7013474
101781762.688000,-66.777771
102128904.960000,-66.7132568
102476047.232000,-66.1238708
102823189.504000,-65.6027603
103170331.776000,-65.1020813
103517474.048000,-64.4656448
103864616.320000,-63.5868721
104211758.592000,-62.7912674
104558900.864000,-62.0631218
104906043.136000,-61.3557472
105253185.408000,-60.3136482
105600327.680000,-58.7704544
105947469.952000,-57.6483612
106294612.224000,-56.4191246
106641754.496000,-55.0729065
106988896.768000,-53.8995895
107336039.040000,-53.0153809
107683181.312000,-52.192421
108030323.584000,-51.5653725
108377465.856000,-51.2592201
108724608.128000,-51.176651
109071750.400000,-51.1880188
109418892.672000,-51.3695145
109766034.944000,-51.5686836
110113177.216000,-51.9048958
110460319.488000,-52.1581039
110807461.760000,-52.3490524
111154604.032000,-52.7053299
111501746.304000,-52.9859047
111848888.576000,-53.0555038
112196030.848000,-53.3670921
112543173.120000,-53.5571899
112890315.392000,-53.8113441
113237457.664000,-53.9080162
113584599.936000,-54.0047455
113931742.208000,-54.1828995
114278884.480000,-54.3190651
114626026.752000,-54.5995178
114973169.024000,-54.7051849
115320311.296000,-54.9395332
115667453.568000,-55.20401
116014595.840000,-55.4470634
116361738.112000,-55.6116028
116708880.384000,-55.6564407
117056022.656000,-55.8345299
117403164.928000,-55.9793854
117750307.200000,-56.2049942
118097449.472000,-56.1526871
118444591.744000,-56.5033569
118791734.016000,-56.5221443
119138876.288000,-56.8038368
119486018.560000,-56.784729
119833160.832000,-57.0548019
120180303.104000,-57.2036667
120527445.376000,-57.5705605
120874587.648000,-57.6882248
121221729.920000,-57.8724556
121568872.192000,-58.4961166
121916014.464000,-58.6186829
122263156.736000,-59.1513481
122610299.008000,-59.7836189
122957441.280000,-60.4564018
123304583.552000,-60.8173981
123651725.824000,-61.0918961
123998868.096000,-61.7698517
124346010.368000,-61.7058563
124693152.640000,-61.8642693
125040294.912000,-60.7644577
125387437.184000,-62.1676865
125734579.456000,-62.7232018
126081721.728000,-62.7424126
126428864.000000,-62.2241173
126776006.272000,-62.5262604
127123148.544000,-62.3014069
127470290.816000,-62.3106117
127817433.088000,-61.9881554
128164575.360000,-61.5397263
128511717.632000,-61.6976433
128858859.904000,-61.5488281
129206002.176000,-61.4477654
129553144.448000,-61.1090546
129900286.720000,-61.014576
130247428.992000,-60.8624611
130594571.264000,-60.7236137
130941713.536000,-60.6910362
131288855.808000,-60.5013924
131635998.080000,-60.6212196
131983140.352000,-60.9159393
132330282.624000,-61.2480774
132677424.896000,-61.4738808
133024567.168000,-62.0479736
133371709.440000,-62.3527985
133718851.712000,-63.1301613
134065993.984000,-63.4467583
134413136.256000,-64.183197
134760278.528000,-64.1923599
135107420.800000,-64.8739243
135454563.072000,-65.2834549
135801705.344000,-65.4191284
136148847.616000,-66.0297241
136495989.888000,-66.3050919
136843132.160000,-66.6104355
137190274.432000,-66.7215958
137537416.704000,-66.7822189
137884558.976000,-66.9756393
138231701.248000,-66.9344254
138578843.520000,-66.6313095
138925985.792000,-67.0150452
139273128.064000,-66.4510956
139620270.336000,-66.756218
139967412.608000,-66.7902298
140314554.880000,-66.5254669
140661697.152000,-65.9569321
141008839.424000,-65.4739532
141355981.696000,-65.721199
141703123.968000,-65.1454086
142050266.240000,-65.0279922
142397408.512000,-64.843605
142744550.784000,-64.7303467
143091693.056000,-64.4773941
143438835.328000,-64.4013062
143785977.600000,-64.3712234
144133119.872000,-64.8835678
144480262.144000,-64.7446442
144827404.416000,-64.7095795
145174546.688000,-65.1404037
145521688.960000,-65.2351913
145868831.232000,-65.6389771
146215973.504000,-65.4141312
146563115.776000,-66.1360855
146910258.048000,-66.1350098
147257400.320000,-66.5489578
147604542.592000,-66.7798004
147951684.864000,-66.5771866
148298827.136000,-67.9731979
148645969.408000,-68.5201569
148993111.680000,-68.4995346
149340253.952000,-68.7070465
149687396.224000,-68.2113724
150034538.496000,-66.7368851
150381680.768000,-69.0751114
150728823.040000,-70.3702164
151075965.312000,-71.060585
151423107.584000,-71.2842865
151770249.856000,-71.95784
152117392.128000,-72.2886887
152464534.400000,-71.8296432
152811676.672000,-73.3974609
153158818.944000,-73.2868576
153505961.216000,-73.2703476
153853103.488000,-73.8894348
154200245.760000,-73.4856415
154547388.032000,-74.2284241
154894530.304000,-74.1629333
155241672.576000,-74.6921539
155588814.848000,-74.131813
155935957.120000,-74.029274
156283099.392000,-73.9441147
156630241.664000,-72.7323532
156977383.936000,-73.8039856
157324526.208000,-73.2852249
157671668.480000,-73.2973251
158018810.752000,-73.5448532
158365953.024000,-73.1825485
158713095.296000,-72.0018082
159060237.568000,-72.0718155
159407379.840000,-72.1067429
159754522.112000,-70.9034424
160101664.384000,-70.5068817
160448806.656000,-70.6815491
160795948.928000,-70.5214081
161143091.200000,-70.7314987
161490233.472000,-70.0161896
161837375.744000,-69.5039825
162184518.016000,-69.3440704
162531660.288000,-69.7314529
162878802.560000,-69.1227646
163225944.832000,-68.8540573
163573087.104000,-68.3046188
163920229.376000,-67.9804764
164267371.648000,-68.2008057
164614513.920000,-68.115303
164961656.192000,-67.8622971
165308798.464000,-67.4361954
165655940.736000,-67.2137222
166003083.008000,-67.0395126
166350225.280000,-66.320816
166697367.552000,-66.4296646
167044509.824000,-65.7899704
167391652.096000,-65.6063232
167738794.368000,-65.553772
168085936.640000,-65.6058273
168433078.912000,-64.9839783
168780221.184000,-64.8172531
169127363.456000,-64.400322
169474505.728000,-64.1499329
169821648.000000,-64.032753
170168790.272000,-63.5530281
170515932.544000,-63.4404259
170863074.816000,-63.114975
171210217.088000,-62.5012093
171557359.360000,-62.3105927
171904501.632000,-62.0937386
172251643.904000,-61.8290253
172598786.176000,-61.3719597
172945928.448000,-61.1086197
173293070.720000,-60.607811
173640212.992000,-60.447567
173987355.264000,-60.0819054
174334497.536000,-59.6427803
174681639.808000,-58.983757
175028782.080000,-59.0901108
175375924.352000,-58.6395264
175723066.624000,-58.4667931
176070208.896000,-58.083046
176417351.168000,-57.9298172
176764493.440000,-57.5450592
177111635.712000,-57.2406197
177458777.984000,-57.1269646
177805920.256000,-56.8541031
178153062.528000,-56.7063866
178500204.800000,-56.6892319
178847347.072000,-56.581974
179194489.344000,-56.3534966
179541631.616000,-56.3597946
179888773.888000,-56.3512115
180235916.160000,-56.2325897
180583058.432000,-56.2942505
180930200.704000,-56.1235161
181277342.976000,-56.2143631
181624485.248000,-56.1353912
181971627.520000,-56.2299728
182318769.792000,-56.3649216
182665912.064000,-56.3538895
183013054.336000,-56.4763718
183360196.608000,-56.3257637
183707338.880000,-56.4413719
184054481.152000,-56.5503044
184401623.424000,-56.7364655
184748765.696000,-56.6849823
185095907.968000,-57.0078888
185443050.240000,-56.8990822
185790192.512000,-57.1546288
186137334.784000,-57.2193375
186484477.056000,-57.5415077
186831619.328000,-57.7576714
187178761.600000,-57.8686066
187525903.872000,-58.1417007
187873046.144000,-58.3940926
188220188.416000,-58.6834717
188567330.688000,-59.144928
188914472.960000,-59.2995377
189261615.232000,-59.4789124
189608757.504000,-59.7269859
189955899.776000,-59.8809471
190303042.048000,-60.186573
190650184.320000,-60.2994385
190997326.592000,-60.0755081
191344468.864000,-60.0252953
191691611.136000,-59.9704514
192038753.408000,-59.5405197
192385895.680000,-59.2056961
192733037.952000,-58.9163628
193080180.224000,-58.2579918
193427322.496000,-57.8181114
193774464.768000,-57.115078
194121607.040000,-56.6310616
194468749.312000,-55.8897018
194815891.584000,-55.2299805
195163033.856000,-54.5000801
195510176.128000,-53.8289413
195857318.400000,-53.0167542
196204460.672000,-52.2089539
196551602.944000,-51.3700523
196898745.216000,-50.5506592
197245887.488000,-49.7859459
197593029.760000,-48.9449196
197940172.032000,-48.0753136
198287314.304000,-47.4145012
198634456.576000,-46.7736816
198981598.848000,-46.0980263
199328741.120000,-45.5822945
199675883.392000,-45.2453384
200023025.664000,-44.9689941
200370167.936000,-44.7519455
200717310.208000,-44.7463684
201064452.480000,-44.7991447
201411594.752000,-44.8848763
201758737.024000,-44.9789009
202105879.296000,-45.1300621
202453021.568000,-45.3620415
202800163.840000,-45.5260162
203147306.112000,-45.6621971
203494448.384000,-45.8918152
203841590.656000,-46.0484238
204188732.928000,-46.1550179
204535875.200000,-46.284771
204883017.472000,-46.4658279
205230159.744000,-46.5860062
205577302.016000,-46.6315193
205924444.288000,-46.8219643
206271586.560000,-46.9618225
206618728.832000,-47.0673943
206965871.104000,-47.0850487
207313013.376000,-47.35709
207660155.648000,-47.4312134
208007297.920000,-47.5165749
208354440.192000,-47.6497536
208701582.464000,-47.8253403
209048724.736000,-47.9606133
209395867.008000,-48.0831451
209743009.280000,-48.2794456
210090151.552000,-48.4491882
210437293.824000,-48.6618423
210784436.096000,-48.8098602
211131578.368000,-49.0595551
211478720.640000,-49.2465591
211825862.912000,-49.4456139
212173005.184000,-49.626255
212520147.456000,-49.8384018
212867289.728000,-50.076889
213214432.000000,-50.2703705
213561574.272000,-50.6037636
213908716.544000,-50.8725357
214255858.816000,-51.0499992
214603001.088000,-51.3377113
214950143.360000,-51.6640396
215297285.632000,-51.9596252
215644427.904000,-52.1684189
215991570.176000,-52.5260506
216338712.448000,-52.9594612
216685854.720000,-53.2719421
217032996.992000,-53.5915222
217380139.264000,-54.0285339
217727281.536000,-54.3726158
218074423.808000,-54.8740616
218421566.080000,-55.373848
218768708.352000,-55.8731651
219115850.624000,-56.4235649
219462992.896000,-57.1306458
219810135.168000,-57.7061005
220157277.440000,-58.4208755
220504419.712000,-58.8207359
220851561.984000,-59.2077332
221198704.256000,-59.164238
221545846.528000,-58.5690575
221892988.800000,-57.8833389
222240131.072000,-56.6223068
222587273.344000,-55.545372
222934415.616000,-54.297451
223281557.888000,-53.2515526
223628700.160000,-52.0530815
223975842.432000,-51.0689354
224322984.704000,-50.3131294
224670126.976000,-49.3832588
225017269.248000,-48.6848221
225364411.520000,-47.94067
225711553.792000,-47.3786049
226058696.064000,-46.8043785
226405838.336000,-46.2922745
226752980.608000,-45.7552261
227100122.880000,-45.3138657
227447265.152000,-44.8933563
227794407.424000,-44.4852257
228141549.696000,-44.1509361
228488691.968000,-43.7852287
228835834.240000,-43.4858246
229182976.512000,-43.1285553
229530118.784000,-42.8817024
229877261.056000,-42.6073875
230224403.328000,-42.3026924
230571545.600000,-42.0417633
230918687.872000,-41.8311577
231265830.144000,-41.595665
231612972.416000,-41.345665
231960114.688000,-41.1916809
232307256.960000,-41.0321579
232654399.232000,-40.7936821
233001541.504000,-40.6166382
233348683.776000,-40.4719276
233695826.048000,-40.3747292
234042968.320000,-40.224205
234390110.592000,-40.1436043
234737252.864000,-40.0434647
235084395.136000,-40.0213356
235431537.408000,-39.9256401
235778679.680000,-39.9095116
236125821.952000,-39.9049911
236472964.224000,-39.8792725
236820106.496000,-39.8496628
237167248.768000,-39.9185333
237514391.040000,-39.9948463
237861533.312000,-40.0355492
238208675.584000,-40.1107635
238555817.856000,-40.2004623
238902960.128000,-40.3548431
239250102.400000,-40.460598
239597244.672000,-40.6272507
239944386.944000,-40.8120041
240291529.216000,-40.9861984
240638671.488000,-41.1734467
240985813.760000,-41.4109612
241332956.032000,-41.678688
241680098.304000,-41.919239
242027240.576000,-42.1984215
242374382.848000,-42.5449066
242721525.120000,-42.8392143
243068667.392000,-43.0984421
243415809.664000,-43.5043297
243762951.936000,-43.8821487
244110094.208000,-44.2742462
244457236.480000,-44.6396484
244804378.752000,-45.1621704
245151521.024000,-45.5248032
245498663.296000,-45.9918556
245845805.568000,-46.5898895
246192947.840000,-47.0551491
246540090.112000,-47.5718117
246887232.384000,-48.0615158
247234374.656000,-48.6598244
247581516.928000,-49.2802391
247928659.200000,-49.7768097
248275801.472000,-50.3848915
248622943.744000,-51.0771217
248970086.016000,-51.7099304
249317228.288000,-52.3028221
249664370.560000,-52.9132385
250011512.832000,-53.2691879
250358655.104000,-54.2684021
250705797.376000,-54.9918671
251052939.648000,-55.7290916
251400081.920000,-56.4768753
251747224.192000,-57.2085686
252094366.464000,-57.8799133
252441508.736000,-58.7540245
252788651.008000,-59.5457649
253135793.280000,-60.0718269
253482935.552000,-60.8208122
253830077.824000,-61.2227325
254177220.096000,-61.8185272
254524362.368000,-61.4507217
254871504.640000,-61.1844826
255218646.912000,-60.4231606
255565789.184000,-59.489048
255912931.456000,-58.5603561
256260073.728000,-57.7027855
256607216.000000,-56.7416458
256954358.272000,-55.551609
257301500.544000,-54.5436554
257648642.816000,-53.5900269
257995785.088000,-52.8695221
258342927.360000,-51.8045158
258690069.632000,-51.0701599
259037211.904000,-50.2155457
259384354.176000,-49.3966827
259731496.448000,-48.6705246
260078638.720000,-47.9193497
260425780.992000,-47.1795616
260772923.264000,-46.5610733
261120065.536000,-45.8576736
261467207.808000,-45.2480354
261814350.080000,-44.6368828
262161492.352000,-44.111412
262508634.624000,-43.5822792
262855776.896000,-43.0664673
263202919.168000,-42.6534576
263550061.440000,-42.2582245
263897203.712000,-41.8470345
264244345.984000,-41.532486
264591488.256000,-41.267498
264938630.528000,-41.048954
265285772.800000,-40.766983
265632915.072000,-40.6211205
265980057.344000,-40.4789886
266327199.616000,-40.3816566
266674341.888000,-40.2110748
267021484.160000,-40.1889381
267368626.432000,-40.1574402
267715768.704000,-40.1440735
268062910.976000,-40.1158981
268410053.248000,-40.112606
268757195.520000,-40.1573715
269104337.792000,-40.1398354
269451480.064000,-40.1920204
269798622.336000,-40.2570305
270145764.608000,-40.2730942
270492906.880000,-40.3232689
270840049.152000,-40.4109917
271187191.424000,-40.4766922
271534333.696000,-40.5619621
271881475.968000,-40.617836
272228618.240000,-40.7535019
272575760.512000,-40.8851242
272922902.784000,-40.9448013
273270045.056000,-41.0502625
