Frequency_Hz,Amplitude
39643296.000000,-74.7825699
39990438.272000,-74.6216049
40337580.544000,-74.7008057
40684722.816000,-74.3755951
41031865.088000,-74.5734711
41379007.360000,-74.5053864
41726149.632000,-74.5557175
42073291.904000,-73.9866638
42420434.176000,-72.9312286
42767576.448000,-71.989624
43114718.720000,-71.6590271
43461860.992000,-71.012352
43809003.264000,-69.6271286
44156145.536000,-68.3401108
44503287.808000,-67.9984055
44850430.080000,-66.7636414
45197572.352000,-65.3396072
45544714.624000,-63.3166962
45891856.896000,-61.4199753
46238999.168000,-59.3153992
46586141.440000,-56.241375
46933283.712000,-53.0950813
47280425.984000,-51.3394623
47627568.256000,-52.0370674
47974710.528000,-55.0629997
48321852.800000,-58.1493645
48668995.072000,-60.4697952
49016137.344000,-62.6184769
49363279.616000,-63.69207
49710421.888000,-65.279808
50057564.160000,-66.7444382
50404706.432000,-68.1472473
50751848.704000,-68.9362869
51098990.976000,-69.2962494
51446133.248000,-69.9602509
51793275.520000,-69.8047028
52140417.792000,-70.595665
52487560.064000,-70.1391373
52834702.336000,-71.0470963
53181844.608000,-71.2099838
53528986.880000,-70.7434998
53876129.152000,-70.7945099
54223271.424000,-70.9427948
54570413.696000,-70.50177
54917555.968000,-71.1213303
55264698.240000,-70.4925995
55611840.512000,-70.7573853
55958982.784000,-70.6439972
56306125.056000,-70.700325
56653267.328000,-70.7490692
57000409.600000,-70.1825562
57347551.872000,-71.1353989
57694694.144000,-70.6476288
58041836.416000,-69.881134
58388978.688000,-70.0009537
58736120.960000,-69.790451
59083263.232000,-69.4805374
59430405.504000,-68.5535583
59777547.776000,-69.4782715
60124690.048000,-69.0725098
60471832.320000,-69.5331726
60818974.592000,-68.9880905
61166116.864000,-69.0751114
61513259.136000,-69.2802429
61860401.408000,-68.7558823
62207543.680000,-69.0781555
62554685.952000,-68.7957077
62901828.224000,-67.639267
63248970.496000,-67.6395645
63596112.768000,-67.5965424
63943255.040000,-66.8570251
64290397.312000,-67.0392151
64637539.584000,-67.0870895
64984681.856000,-66.5634613
65331824.128000,-65.4172058
65678966.400000,-65.2509918
66026108.672000,-64.8146286
66373250.944000,-64.2390747
66720393.216000,-63.6614952
67067535.488000,-62.9420013
67414677.760000,-61.8613625
67761820.032000,-60.7411346
68108962.304000,-59.7622452
68456104.576000,-59.8824997
68803246.848000,-61.638752
69150389.120000,-64.0400009
69497531.392000,-67.3584061
69844673.664000,-70.248848
70191815.936000,-73.6230392
70538958.208000,-74.1512909
70886100.480000,-73.9409485
71233242.752000,-74.1222534
71580385.024000,-73.8336258
71927527.296000,-72.5451279
72274669.568000,-72.5546341
72621811.840000,-71.9922638
72968954.112000,-72.6865158
73316096.384000,-70.6945267
73663238.656000,-70.5719376
74010380.928000,-70.3558273
74357523.200000,-70.411972
74704665.472000,-69.1797562
75051807.744000,-69.8012314
75398950.016000,-69.5188293
75746092.288000,-68.8416595
76093234.560000,-69.3679581
76440376.832000,-69.5012131
76787519.104000,-68.7950363
77134661.376000,-68.3669739
77481803.648000,-69.0902023
77828945.920000,-69.0957413
78176088.192000,-69.2895279
78523230.464000,-68.6274033
78870372.736000,-68.6945038
79217515.008000,-68.8393936
79564657.280000,-69.0637817
79911799.552000,-69.6985779
80258941.824000,-69.2713089
80606084.096000,-69.1554031
80953226.368000,-69.4259415
81300368.640000,-69.312233
81647510.912000,-69.1624832
81994653.184000,-69.5134048
82341795.456000,-69.7164536
82688937.728000,-68.8533783
83036080.000000,-68.6067505
83383222.272000,-68.6489258
83730364.544000,-68.936058
84077506.816000,-68.2886963
84424649.088000,-68.4860687
84771791.360000,-68.7628555
85118933.632000,-67.6411133
85466075.904000,-67.8597946
85813218.176000,-66.846077
86160360.448000,-66.7222672
86507502.720000,-66.2013626
86854644.992000,-66.1935577
87201787.264000,-65.9648285
87548929.536000,-65.1506882
87896071.808000,-65.1148071
88243214.080000,-64.4347458
88590356.352000,-64.2269821
88937498.624000,-63.58004
89284640.896000,-63.5501137
89631783.168000,-62.8548203
89978925.440000,-63.2783852
90326067.712000,-62.9902763
90673209.984000,-63.5059814
91020352.256000,-63.6602631
91367494.528000,-63.8493271
91714636.800000,-63.9687958
92061779.072000,-64.3515015
92408921.344000,-64.312767
92756063.616000,-64.7485733
93103205.888000,-64.793129
93450348.160000,-64.7420578
93797490.432000,-65.3593063
94144632.704000,-65.7114487
94491774.976000,-65.9795914
94838917.248000,-67.1325302
95186059.520000,-67.391777
95533201.792000,-67.2671738
95880344.064000,-68.4008942
96227486.336000,-68.8566742
96574628.608000,-68.381424
96921770.880000,-68.915802
97268913.152000,-69.4313812
97616055.424000,-68.2355499
97963197.696000,-68.7803955
98310339.968000,-68.5276566
98657482.240000,-69.4759979
99004624.512000,-68.6101303
99351766.784000,-68.6232605
99698909.056000,-68.0044785
100046051.328000,-67.8488388
100393193.600000,-67.5114059
100740335.872000,-67.7183456
101087478.144000,-67.654213
101434620.416000,-67.0014648
101781762.688000,-66.4689178
102128904.960000,-66.5467148
102476047.232000,-66.1788712
102823189.504000,-65.3181458
103170331.776000,-65.3847046
103517474.048000,-64.8048401
103864616.320000,-63.7786064
104211758.592000,-63.3967133
104558900.864000,-61.9877052
104906043.136000,-61.0493355
105253185.408000,-60.0387115
105600327.680000,-58.8866119
105947469.952000,-57.6053886
106294612.224000,-56.4032974
106641754.496000,-55.2050285
106988896.768000,-54.0366783
107336039.040000,-52.9537048
107683181.312000,-52.1953011
108030323.584000,-51.5436401
108377465.856000,-51.2414131
108724608.128000,-51.2272568
109071750.400000,-51.1423759
109418892.672000,-51.3396568
109766034.944000,-51.5931244
110113177.216000,-51.8915062
110460319.488000,-52.158493
110807461.760000,-52.3277855
111154604.032000,-52.7355003
111501746.304000,-53.0006599
111848888.576000,-53.0750198
112196030.848000,-53.3528595
112543173.120000,-53.6692581
112890315.392000,-53.7052803
113237457.664000,-53.9914627
113584599.936000,-54.1573334
113931742.208000,-54.3179169
114278884.480000,-54.4244919
114626026.752000,-54.7486038
114973169.024000,-54.9736671
115320311.296000,-55.0567551
115667453.568000,-55.2851944
116014595.840000,-55.4447174
116361738.112000,-55.6054039
116708880.384000,-55.832386
117056022.656000,-55.9034119
117403164.928000,-56.032547
117750307.200000,-56.2109718
118097449.472000,-56.1984596
118444591.744000,-56.3685188
118791734.016000,-56.4797707
119138876.288000,-56.5942764
119486018.560000,-56.8941193
119833160.832000,-57.0878372
120180303.104000,-57.1648674
120527445.376000,-57.2651215
120874587.648000,-57.6823616
121221729.920000,-57.9852638
121568872.192000,-58.434761
121916014.464000,-58.6691208
122263156.736000,-59.383728
122610299.008000,-59.5672264
122957441.280000,-60.2167015
123304583.552000,-61.0222549
123651725.824000,-61.3594933
123998868.096000,-61.6108437
124346010.368000,-61.7973289
124693152.640000,-61.7916832
125040294.912000,-60.6509171
125387437.184000,-62.1498833
125734579.456000,-62.4159813
126081721.728000,-62.6086273
126428864.000000,-62.6420937
126776006.272000,-62.3120689
127123148.544000,-62.098835
127470290.816000,-62.2166901
127817433.088000,-61.9585953
128164575.360000,-61.9623222
128511717.632000,-61.6989403
128858859.904000,-61.6229324
129206002.176000,-61.6388817
129553144.448000,-61.0805626
129900286.720000,-60.8402367
130247428.992000,-60.8187561
130594571.264000,-60.5655022
130941713.536000,-60.8324852
131288855.808000,-60.6782684
131635998.080000,-60.7192726
131983140.352000,-60.7350235
132330282.624000,-61.1615562
132677424.896000,-61.5635033
133024567.168000,-62.034771
133371709.440000,-62.5476532
133718851.712000,-63.0153656
134065993.984000,-63.6279755
134413136.256000,-64.3365707
134760278.528000,-64.6499405
135107420.800000,-65.2073898
135454563.072000,-65.7619705
135801705.344000,-66.0634155
136148847.616000,-65.4710922
136495989.888000,-65.9568787
136843132.160000,-66.422142
137190274.432000,-66.7878494
137537416.704000,-66.6453247
137884558.976000,-66.8988342
138231701.248000,-66.7677841
138578843.520000,-66.9944611
138925985.792000,-67.0873947
139273128.064000,-66.4147949
139620270.336000,-66.6389999
139967412.608000,-67.0063934
140314554.880000,-66.9809494
140661697.152000,-66.8452148
141008839.424000,-65.9758759
141355981.696000,-65.528862
141703123.968000,-65.1848145
142050266.240000,-65.2513428
142397408.512000,-65.1021652
142744550.784000,-64.3362656
143091693.056000,-64.5438232
143438835.328000,-64.2626038
143785977.600000,-64.3490219
144133119.872000,-64.5336304
144480262.144000,-64.5624466
144827404.416000,-64.8509216
145174546.688000,-64.8308105
145521688.960000,-65.0262909
145868831.232000,-65.2518845
146215973.504000,-65.3520889
146563115.776000,-65.4685211
146910258.048000,-65.7531662
147257400.320000,-66.3946228
147604542.592000,-66.4191742
147951684.864000,-66.8040695
148298827.136000,-67.21875
148645969.408000,-67.6576462
148993111.680000,-68.3299103
149340253.952000,-67.9342346
149687396.224000,-68.5813065
150034538.496000,-67.4814682
150381680.768000,-69.1024933
150728823.040000,-70.5396729
151075965.312000,-70.6966476
151423107.584000,-71.2048035
151770249.856000,-72.0552444
152117392.128000,-71.7863846
152464534.400000,-72.9385605
152811676.672000,-72.5014267
153158818.944000,-73.0463333
153505961.216000,-73.158493
153853103.488000,-73.7460403
154200245.760000,-74.338089
154547388.032000,-73.9988174
154894530.304000,-74.6976929
155241672.576000,-74.107338
155588814.848000,-74.1242142
155935957.120000,-74.4411011
156283099.392000,-74.3211746
156630241.664000,-73.3689651
156977383.936000,-73.9824829
157324526.208000,-73.2229996
157671668.480000,-73.4938202
158018810.752000,-73.5535278
158365953.024000,-73.2329407
158713095.296000,-72.0608521
159060237.568000,-72.1942978
159407379.840000,-71.6381149
159754522.112000,-71.0831909
160101664.384000,-70.7820053
160448806.656000,-70.8335876
160795948.928000,-70.0579529
161143091.200000,-70.7757721
161490233.472000,-69.971817
161837375.744000,-69.5780029
162184518.016000,-69.8084869
162531660.288000,-69.1585922
162878802.560000,-69.1426849
163225944.832000,-68.7685547
163573087.104000,-68.0514832
163920229.376000,-68.4095917
164267371.648000,-68.3794785
164614513.920000,-67.5757446
164961656.192000,-67.6172409
165308798.464000,-67.1586075
165655940.736000,-66.8843155
166003083.008000,-67.0938187
166350225.280000,-66.4612808
166697367.552000,-66.4295273
167044509.824000,-66.4506989
167391652.096000,-65.9622879
167738794.368000,-65.6343689
168085936.640000,-65.1638107
168433078.912000,-65.0742188
168780221.184000,-64.579361
169127363.456000,-64.8662338
169474505.728000,-64.382576
169821648.000000,-64.1603546
170168790.272000,-63.9326134
170515932.544000,-63.6506729
170863074.816000,-63.1261253
171210217.088000,-62.9452477
171557359.360000,-62.494709
171904501.632000,-61.97966
172251643.904000,-61.7866173
172598786.176000,-61.6478233
172945928.448000,-61.0034142
173293070.720000,-60.609272
173640212.992000,-60.1689949
173987355.264000,-60.1040306
174334497.536000,-59.7179108
174681639.808000,-59.2074471
175028782.080000,-59.0234108
175375924.352000,-58.5601921
175723066.624000,-58.4323082
176070208.896000,-57.8924866
176417351.168000,-57.6329613
176764493.440000,-57.5716362
177111635.712000,-57.1860199
177458777.984000,-57.1125259
177805920.256000,-56.8893051
178153062.528000,-56.6054001
178500204.800000,-56.7521439
178847347.072000,-56.5866661
179194489.344000,-56.58741
179541631.616000,-56.3008575
179888773.888000,-56.1504936
180235916.160000,-56.2432289
180583058.432000,-56.2033653
180930200.704000,-56.0439224
181277342.976000,-56.2509651
181624485.248000,-56.2256012
181971627.520000,-56.139389
182318769.792000,-56.2277603
182665912.064000,-56.2800407
183013054.336000,-56.115818
183360196.608000,-56.1892624
183707338.880000,-56.4973488
184054481.152000,-56.7050247
184401623.424000,-56.47686
184748765.696000,-56.6662178
185095907.968000,-56.8566093
185443050.240000,-56.84795
185790192.512000,-57.222847
186137334.784000,-57.2142944
186484477.056000,-57.3953743
186831619.328000,-57.6659889
187178761.600000,-57.8878059
187525903.872000,-58.2956009
187873046.144000,-58.5412292
188220188.416000,-58.6759224
188567330.688000,-59.1065254
188914472.960000,-59.4888687
189261615.232000,-59.5439148
189608757.504000,-59.6813393
189955899.776000,-59.9379578
190303042.048000,-60.0208549
190650184.320000,-60.3045464
190997326.592000,-59.9191666
191344468.864000,-59.9935532
191691611.136000,-59.7928963
192038753.408000,-59.5586357
192385895.680000,-59.1352844
192733037.952000,-58.8605919
193080180.224000,-58.3029823
193427322.496000,-57.7962532
193774464.768000,-57.3319283
194121607.040000,-56.602356
194468749.312000,-55.9389801
194815891.584000,-55.3627892
195163033.856000,-54.6414871
195510176.128000,-53.8236885
195857318.400000,-53.0334587
196204460.672000,-52.2920303
196551602.944000,-51.43993
196898745.216000,-50.5318031
197245887.488000,-49.7556572
197593029.760000,-48.9049225
197940172.032000,-48.0932426
198287314.304000,-47.351944
198634456.576000,-46.7385216
198981598.848000,-46.1260605
199328741.120000,-45.6051788
199675883.392000,-45.2307091
200023025.664000,-44.9941406
200370167.936000,-44.8195076
200717310.208000,-44.7587357
201064452.480000,-44.8366089
201411594.752000,-44.9095078
201758737.024000,-44.9779778
202105879.296000,-45.175087
202453021.568000,-45.4060898
202800163.840000,-45.5388412
203147306.112000,-45.7001839
203494448.384000,-45.8848534
203841590.656000,-46.0664864
204188732.928000,-46.1741867
204535875.200000,-46.3187065
204883017.472000,-46.4889297
205230159.744000,-46.5472488
205577302.016000,-46.6968918
205924444.288000,-46.8433189
206271586.560000,-46.9390411
206618728.832000,-47.0493813
206965871.104000,-47.1988144
207313013.376000,-47.273613
207660155.648000,-47.4293938
208007297.920000,-47.4867973
208354440.192000,-47.7029037
208701582.464000,-47.8441696
209048724.736000,-47.928299
209395867.008000,-48.0805206
209743009.280000,-48.3185081
210090151.552000,-48.4652824
210437293.824000,-48.6165047
210784436.096000,-48.7975235
211131578.368000,-49.051136
211478720.640000,-49.2012939
211825862.912000,-49.4326591
212173005.184000,-49.7151794
212520147.456000,-49.8990021
212867289.728000,-50.1477394
213214432.000000,-50.3019524
213561574.272000,-50.5563164
213908716.544000,-50.8339806
214255858.816000,-51.0109901
214603001.088000,-51.3905029
214950143.360000,-51.6124725
215297285.632000,-51.8924446
215644427.904000,-52.1922188
215991570.176000,-52.5497169
216338712.448000,-52.8628349
216685854.720000,-53.1739159
217032996.992000,-53.655571
217380139.264000,-53.8774681
217727281.536000,-54.3534775
218074423.808000,-54.8543053
218421566.080000,-55.4821358
218768708.352000,-56.0215492
219115850.624000,-56.5393753
219462992.896000,-56.9993553
219810135.168000,-57.8712273
220157277.440000,-58.3327026
220504419.712000,-58.9005508
220851561.984000,-59.2119408
221198704.256000,-59.082283
221545846.528000,-58.520031
221892988.800000,-57.7735863
222240131.072000,-56.6253357
222587273.344000,-55.5602341
222934415.616000,-54.2481613
223281557.888000,-53.1479187
223628700.160000,-52.2220802
223975842.432000,-51.1852608
224322984.704000,-50.2451706
224670126.976000,-49.3646202
225017269.248000,-48.7086296
225364411.520000,-48.0173302
225711553.792000,-47.4067726
226058696.064000,-46.7839317
226405838.336000,-46.2406349
226752980.608000,-45.8599243
227100122.880000,-45.3200188
227447265.152000,-44.9119797
227794407.424000,-44.4853554
228141549.696000,-44.1444397
228488691.968000,-43.8079414
228835834.240000,-43.4686584
229182976.512000,-43.1288261
229530118.784000,-42.8282127
229877261.056000,-42.6143646
230224403.328000,-42.2951393
230571545.600000,-42.0684776
230918687.872000,-41.8234329
231265830.144000,-41.6100883
231612972.416000,-41.3380089
231960114.688000,-41.1750412
232307256.960000,-40.9887199
232654399.232000,-40.7963448
233001541.504000,-40.6297302
233348683.776000,-40.4860954
233695826.048000,-40.3638763
234042968.320000,-40.2267227
234390110.592000,-40.1275864
234737252.864000,-40.0326653
235084395.136000,-40.0009232
235431537.408000,-39.8996162
235778679.680000,-39.8796692
236125821.952000,-39.9223518
236472964.224000,-39.8913002
236820106.496000,-39.876091
237167248.768000,-39.9232903
237514391.040000,-40.014122
237861533.312000,-40.0232811
238208675.584000,-40.1178894
238555817.856000,-40.2112236
238902960.128000,-40.3565826
239250102.400000,-40.4435234
239597244.672000,-40.62677
239944386.944000,-40.8463936
240291529.216000,-40.9900627
240638671.488000,-41.211544
240985813.760000,-41.4461555
241332956.032000,-41.7042198
241680098.304000,-41.9616203
242027240.576000,-42.2280579
242374382.848000,-42.5296974
242721525.120000,-42.7820816
243068667.392000,-43.1134186
243415809.664000,-43.5204544
243762951.936000,-43.948761
244110094.208000,-44.2639389
244457236.480000,-44.6997528
244804378.752000,-45.1249619
245151521.024000,-45.5781326
245498663.296000,-46.0459976
245845805.568000,-46.5247307
246192947.840000,-47.097477
246540090.112000,-47.5253677
246887232.384000,-48.1290092
247234374.656000,-48.6647568
247581516.928000,-49.3051453
247928659.200000,-49.8269806
248275801.472000,-50.3985634
248622943.744000,-50.9579887
248970086.016000,-51.7566948
249317228.288000,-52.239048
249664370.560000,-53.0212021
250011512.832000,-53.430542
250358655.104000,-54.2489433
250705797.376000,-54.9923897
251052939.648000,-55.8154297
251400081.920000,-56.6076469
251747224.192000,-57.1152725
252094366.464000,-57.9183311
252441508.736000,-58.6396294
252788651.008000,-59.593502
253135793.280000,-60.2534027
253482935.552000,-60.9340591
253830077.824000,-61.3868752
254177220.096000,-61.5603104
254524362.368000,-61.8484612
254871504.640000,-61.3241386
255218646.912000,-60.3186493
255565789.184000,-59.4458923
255912931.456000,-58.7536354
256260073.728000,-57.5876656
256607216.000000,-56.462841
256954358.272000,-55.6163483
257301500.544000,-54.5826454
257648642.816000,-53.6844139
257995785.088000,-52.8555336
258342927.360000,-51.8295898
258690069.632000,-51.0351562
259037211.904000,-50.1711044
259384354.176000,-49.3437653
259731496.448000,-48.6351318
260078638.720000,-47.8494301
260425780.992000,-47.1216507
260772923.264000,-46.5044632
261120065.536000,-45.9465332
261467207.808000,-45.158989
261814350.080000,-44.6483002
262161492.352000,-44.1148567
262508634.624000,-43.6203346
262855776.896000,-43.0863838
263202919.168000,-42.6608315
263550061.440000,-42.2766228
263897203.712000,-41.8580322
264244345.984000,-41.5198174
264591488.256000,-41.2789497
264938630.528000,-41.0394974
265285772.800000,-40.7639084
265632915.072000,-40.5692444
265980057.344000,-40.4747391
266327199.616000,-40.3709183
266674341.888000,-40.2436981
267021484.160000,-40.2114906
267368626.432000,-40.1567955
267715768.704000,-40.1518173
268062910.976000,-40.0898933
268410053.248000,-40.1330414
268757195.520000,-40.1661682
269104337.792000,-40.1270638
269451480.064000,-40.1816101
269798622.336000,-40.2507401
270145764.608000,-40.2820282
270492906.880000,-40.3146477
270840049.152000,-40.4245033
271187191.424000,-40.4986115
271534333.696000,-40.5745163
271881475.968000,-40.6438828
272228618.240000,-40.7605324
272575760.512000,-40.8600883
272922902.784000,-40.9330025
273270045.056000,-41.0392342
