Frequency_Hz,Amplitude
39643296.000000,-74.664566
39990438.272000,-75.4188614
40337580.544000,-74.8124924
40684722.816000,-74.2782211
41031865.088000,-73.9496155
41379007.360000,-74.3599014
41726149.632000,-74.6044998
42073291.904000,-73.7543182
42420434.176000,-73.0817261
42767576.448000,-72.5629883
43114718.720000,-72.2769775
43461860.992000,-71.3564758
43809003.264000,-70.7896194
44156145.536000,-69.3736496
44503287.808000,-67.8381958
44850430.080000,-66.6236267
45197572.352000,-65.1117935
45544714.624000,-63.7424355
45891856.896000,-61.524044
46238999.168000,-59.2533112
46586141.440000,-56.4081993
46933283.712000,-53.0531883
47280425.984000,-51.3841324
47627568.256000,-52.1799583
47974710.528000,-55.197525
48321852.800000,-57.9438553
48668995.072000,-60.6294365
49016137.344000,-62.4196091
49363279.616000,-64.1062393
49710421.888000,-65.5958557
50057564.160000,-66.5484161
50404706.432000,-67.6235504
50751848.704000,-67.6198196
51098990.976000,-69.0226898
51446133.248000,-69.224823
51793275.520000,-69.8498535
52140417.792000,-70.5207977
52487560.064000,-71.2644653
52834702.336000,-71.1128616
53181844.608000,-70.7720871
53528986.880000,-71.021698
53876129.152000,-70.8629074
54223271.424000,-70.8072357
54570413.696000,-70.663826
54917555.968000,-69.9758453
55264698.240000,-70.5440063
55611840.512000,-70.2121201
55958982.784000,-70.7215958
56306125.056000,-70.6039124
56653267.328000,-70.4681396
57000409.600000,-70.3557129
57347551.872000,-70.3431931
57694694.144000,-70.0738297
58041836.416000,-71.1496887
58388978.688000,-70.1373749
58736120.960000,-69.8742981
59083263.232000,-69.5231018
59430405.504000,-70.2229996
59777547.776000,-69.2027893
60124690.048000,-69.9144745
60471832.320000,-69.0362015
60818974.592000,-69.437645
61166116.864000,-68.668457
61513259.136000,-68.5223236
61860401.408000,-68.5296173
62207543.680000,-68.6598969
62554685.952000,-68.3308792
62901828.224000,-67.7108688
63248970.496000,-68.4103928
63596112.768000,-67.2715912
63943255.040000,-66.9626389
64290397.312000,-66.8566666
64637539.584000,-66.3212738
64984681.856000,-66.0210953
65331824.128000,-65.8492966
65678966.400000,-65.2903442
66026108.672000,-64.7597885
66373250.944000,-64.4555893
66720393.216000,-63.2990532
67067535.488000,-62.681385
67414677.760000,-62.0084381
67761820.032000,-60.9430084
68108962.304000,-59.7354088
68456104.576000,-59.8739662
68803246.848000,-61.2164192
69150389.120000,-64.1333542
69497531.392000,-67.2572632
69844673.664000,-71.1870346
70191815.936000,-73.2605209
70538958.208000,-74.437027
70886100.480000,-74.5046844
71233242.752000,-74.049942
71580385.024000,-73.8779449
71927527.296000,-72.9092865
72274669.568000,-72.3122787
72621811.840000,-72.1104813
72968954.112000,-72.1881104
73316096.384000,-71.0913239
73663238.656000,-70.8422546
74010380.928000,-69.6881714
74357523.200000,-70.7242508
74704665.472000,-69.9739075
75051807.744000,-69.0420456
75398950.016000,-69.041893
75746092.288000,-69.1665039
76093234.560000,-69.2646408
76440376.832000,-69.3038559
76787519.104000,-69.2449722
77134661.376000,-69.3386841
77481803.648000,-68.8249512
77828945.920000,-69.2167053
78176088.192000,-69.0652924
78523230.464000,-68.8531113
78870372.736000,-68.8038254
79217515.008000,-68.8763733
79564657.280000,-69.4990082
79911799.552000,-68.9930801
80258941.824000,-69.3452759
80606084.096000,-68.7870026
80953226.368000,-69.246376
81300368.640000,-69.0326233
81647510.912000,-69.4148788
81994653.184000,-69.4452896
82341795.456000,-69.1764603
82688937.728000,-69.2523575
83036080.000000,-68.5696411
83383222.272000,-68.6485291
83730364.544000,-68.4009018
84077506.816000,-68.9421997
84424649.088000,-68.0189972
84771791.360000,-67.8111343
85118933.632000,-67.9526749
85466075.904000,-68.0567017
85813218.176000,-66.935463
86160360.448000,-67.7999725
86507502.720000,-66.4937668
86854644.992000,-66.1851578
87201787.264000,-65.8059692
87548929.536000,-64.9868774
87896071.808000,-65.1010666
88243214.080000,-64.8371964
88590356.352000,-64.1590118
88937498.624000,-63.710453
89284640.896000,-63.3070412
89631783.168000,-62.9786377
89978925.440000,-62.8751793
90326067.712000,-62.7634926
90673209.984000,-63.6612167
91020352.256000,-63.6936913
91367494.528000,-63.9999924
91714636.800000,-63.9653778
92061779.072000,-64.4032516
92408921.344000,-64.3771896
92756063.616000,-64.6588821
93103205.888000,-64.6307755
93450348.160000,-64.7674789
93797490.432000,-65.3063354
94144632.704000,-65.6559296
94491774.976000,-66.1375961
94838917.248000,-66.4633713
95186059.520000,-67.1165848
95533201.792000,-67.8365173
95880344.064000,-67.7491684
96227486.336000,-68.5288315
96574628.608000,-68.3847961
96921770.880000,-68.8952103
97268913.152000,-69.2949219
97616055.424000,-68.3844833
97963197.696000,-69.1668777
98310339.968000,-68.7166672
98657482.240000,-68.6522369
99004624.512000,-68.7641907
99351766.784000,-68.2204361
99698909.056000,-68.0225143
100046051.328000,-67.8762512
100393193.600000,-67.593399
100740335.872000,-67.5167694
101087478.144000,-68.1103897
101434620.416000,-66.9551086
101781762.688000,-67.73703
102128904.960000,-66.5452881
102476047.232000,-65.8027878
102823189.504000,-65.9327621
103170331.776000,-65.0096741
103517474.048000,-64.9227142
103864616.320000,-63.780117
104211758.592000,-63.193428
104558900.864000,-62.1746178
104906043.136000,-61.2406464
105253185.408000,-59.8377457
105600327.680000,-58.8101425
105947469.952000,-57.6561928
106294612.224000,-56.2507133
106641754.496000,-55.0310707
106988896.768000,-54.1025047
107336039.040000,-53.0966454
107683181.312000,-52.2112656
108030323.584000,-51.5438118
108377465.856000,-51.2702026
108724608.128000,-51.1801147
109071750.400000,-51.2395287
109418892.672000,-51.2588806
109766034.944000,-51.540844
110113177.216000,-51.9386749
110460319.488000,-52.0889053
110807461.760000,-52.4466209
111154604.032000,-52.6207428
111501746.304000,-52.7688026
111848888.576000,-53.1473961
112196030.848000,-53.3881531
112543173.120000,-53.6610794
112890315.392000,-53.7888031
113237457.664000,-53.8939133
113584599.936000,-54.1193924
113931742.208000,-54.3287125
114278884.480000,-54.5026665
114626026.752000,-54.7350731
114973169.024000,-54.8780441
115320311.296000,-55.0829048
115667453.568000,-55.190239
116014595.840000,-55.447094
116361738.112000,-55.6471748
116708880.384000,-55.5777397
117056022.656000,-55.9165726
117403164.928000,-56.0137787
117750307.200000,-56.2666779
118097449.472000,-56.2519379
118444591.744000,-56.4317474
118791734.016000,-56.6069756
119138876.288000,-56.6746178
119486018.560000,-56.788784
119833160.832000,-57.0757713
120180303.104000,-57.202774
120527445.376000,-57.4057541
120874587.648000,-57.6763687
121221729.920000,-58.1437492
121568872.192000,-58.5284615
121916014.464000,-58.9380989
122263156.736000,-59.3544617
122610299.008000,-59.663208
122957441.280000,-60.7106094
123304583.552000,-60.8300934
123651725.824000,-61.099308
123998868.096000,-61.5600395
124346010.368000,-61.6571159
124693152.640000,-61.7153778
125040294.912000,-60.0994606
125387437.184000,-62.2537804
125734579.456000,-62.4633904
126081721.728000,-62.5918655
126428864.000000,-62.6878395
126776006.272000,-62.4813881
127123148.544000,-62.1673546
127470290.816000,-62.1885834
127817433.088000,-61.9292107
128164575.360000,-61.849102
128511717.632000,-62.0083084
128858859.904000,-61.3293495
129206002.176000,-61.3009758
129553144.448000,-61.3947868
129900286.720000,-61.1238823
130247428.992000,-60.5988083
130594571.264000,-60.7812729
130941713.536000,-60.6629677
131288855.808000,-60.7569466
131635998.080000,-60.5526733
131983140.352000,-61.0231857
132330282.624000,-61.3489876
132677424.896000,-61.77034
133024567.168000,-61.9633789
133371709.440000,-62.4101028
133718851.712000,-63.159668
134065993.984000,-63.5974922
134413136.256000,-64.3633347
134760278.528000,-64.4984741
135107420.800000,-64.9395294
135454563.072000,-65.6478577
135801705.344000,-66.1046677
136148847.616000,-65.9881363
136495989.888000,-66.4221344
136843132.160000,-66.7309875
137190274.432000,-67.0487671
137537416.704000,-66.9908371
137884558.976000,-66.6310425
138231701.248000,-66.8335953
138578843.520000,-66.7010269
138925985.792000,-67.1106873
139273128.064000,-66.6594315
139620270.336000,-66.6655731
139967412.608000,-66.6652451
140314554.880000,-66.6395187
140661697.152000,-66.4621964
141008839.424000,-65.4385147
141355981.696000,-65.4783478
141703123.968000,-65.4513016
142050266.240000,-65.0532913
142397408.512000,-64.6333008
142744550.784000,-64.9367065
143091693.056000,-64.6965179
143438835.328000,-64.7429504
143785977.600000,-64.4438934
144133119.872000,-64.3744354
144480262.144000,-64.6832275
144827404.416000,-64.4955826
145174546.688000,-64.6003036
145521688.960000,-65.0132523
145868831.232000,-65.6377106
146215973.504000,-65.6652527
146563115.776000,-65.6489563
146910258.048000,-65.8639145
147257400.320000,-66.4838867
147604542.592000,-66.8601379
147951684.864000,-66.8400345
148298827.136000,-67.501091
148645969.408000,-67.9094772
148993111.680000,-68.3231735
149340253.952000,-68.1103058
149687396.224000,-68.1014023
150034538.496000,-67.4730225
150381680.768000,-68.8830261
150728823.040000,-70.0689697
151075965.312000,-71.0017014
151423107.584000,-71.6251144
151770249.856000,-71.5998077
152117392.128000,-72.2081909
152464534.400000,-72.4458008
152811676.672000,-72.9262466
153158818.944000,-73.9941406
153505961.216000,-73.5445709
153853103.488000,-73.8375473
154200245.760000,-73.5857697
154547388.032000,-73.4518356
154894530.304000,-73.855957
155241672.576000,-74.564743
155588814.848000,-73.8177948
155935957.120000,-73.6482239
156283099.392000,-73.8215256
156630241.664000,-73.5630798
156977383.936000,-73.2277985
157324526.208000,-73.1776047
157671668.480000,-73.0406494
158018810.752000,-73.1087875
158365953.024000,-72.522049
158713095.296000,-72.112587
159060237.568000,-71.8980865
159407379.840000,-71.5450134
159754522.112000,-71.9488525
160101664.384000,-71.1268387
160448806.656000,-70.6837234
160795948.928000,-70.8187332
161143091.200000,-70.1925964
161490233.472000,-69.8292542
161837375.744000,-70.1292191
162184518.016000,-69.1130066
162531660.288000,-68.9173279
162878802.560000,-68.4206848
163225944.832000,-68.4388428
163573087.104000,-68.2069855
163920229.376000,-68.1101379
164267371.648000,-68.2465286
164614513.920000,-67.5379028
164961656.192000,-67.3634796
165308798.464000,-67.0115967
165655940.736000,-66.9530334
166003083.008000,-67.1815491
166350225.280000,-66.2627487
166697367.552000,-66.2168503
167044509.824000,-65.9218063
167391652.096000,-65.8600998
167738794.368000,-65.5517349
168085936.640000,-65.4849701
168433078.912000,-64.9494629
168780221.184000,-65.0190201
169127363.456000,-64.7392273
169474505.728000,-64.3224182
169821648.000000,-64.0219574
170168790.272000,-63.2862244
170515932.544000,-63.5330162
170863074.816000,-63.0191345
171210217.088000,-62.533699
171557359.360000,-62.3740654
171904501.632000,-61.7869377
172251643.904000,-61.8179588
172598786.176000,-61.4916382
172945928.448000,-61.0713158
173293070.720000,-60.7391472
173640212.992000,-60.2575417
173987355.264000,-60.0244751
174334497.536000,-59.449707
174681639.808000,-59.2871513
175028782.080000,-59.1356354
175375924.352000,-58.7004662
175723066.624000,-58.4990997
176070208.896000,-58.0271339
176417351.168000,-57.7742577
176764493.440000,-57.5822639
177111635.712000,-57.3995171
177458777.984000,-57.1480141
177805920.256000,-56.9724388
178153062.528000,-56.9407463
178500204.800000,-56.6643143
178847347.072000,-56.5849953
179194489.344000,-56.4574966
179541631.616000,-56.3288841
179888773.888000,-56.2843704
180235916.160000,-56.2016754
180583058.432000,-56.1422462
180930200.704000,-56.2149239
181277342.976000,-56.1358147
181624485.248000,-56.1663055
181971627.520000,-56.1700554
182318769.792000,-56.2305756
182665912.064000,-56.3320274
183013054.336000,-56.3007927
183360196.608000,-56.4823875
183707338.880000,-56.450985
184054481.152000,-56.4942703
184401623.424000,-56.6122589
184748765.696000,-56.7087097
185095907.968000,-57.0227013
185443050.240000,-57.0761986
185790192.512000,-57.1531601
186137334.784000,-57.524868
186484477.056000,-57.4611511
186831619.328000,-57.8548622
187178761.600000,-58.0165977
187525903.872000,-58.4270859
187873046.144000,-58.5314522
188220188.416000,-58.8722572
188567330.688000,-59.0477867
188914472.960000,-59.4469795
189261615.232000,-59.685173
189608757.504000,-59.7716827
189955899.776000,-59.9972229
190303042.048000,-59.9820938
190650184.320000,-60.1683693
190997326.592000,-60.1806488
191344468.864000,-60.0413818
191691611.136000,-59.8793411
192038753.408000,-59.441349
192385895.680000,-59.2472534
192733037.952000,-58.9252663
193080180.224000,-58.3287964
193427322.496000,-57.8960114
193774464.768000,-57.1590195
194121607.040000,-56.5132294
194468749.312000,-55.9481773
194815891.584000,-55.2669296
195163033.856000,-54.5370026
195510176.128000,-53.8397827
195857318.400000,-52.9206619
196204460.672000,-52.2512016
196551602.944000,-51.4158249
196898745.216000,-50.6388817
197245887.488000,-49.8596992
197593029.760000,-48.9471779
197940172.032000,-48.0949097
198287314.304000,-47.3663368
198634456.576000,-46.7202187
198981598.848000,-46.1241226
199328741.120000,-45.6457558
199675883.392000,-45.2502747
200023025.664000,-45.0318298
200370167.936000,-44.826458
200717310.208000,-44.7669411
201064452.480000,-44.8251991
201411594.752000,-44.9162712
201758737.024000,-44.9994774
202105879.296000,-45.1929703
202453021.568000,-45.3890839
202800163.840000,-45.5906029
203147306.112000,-45.7488823
203494448.384000,-45.9129639
203841590.656000,-46.0524254
204188732.928000,-46.1718674
204535875.200000,-46.3573685
204883017.472000,-46.4469032
205230159.744000,-46.6186523
205577302.016000,-46.7182236
205924444.288000,-46.844162
206271586.560000,-46.9473267
206618728.832000,-47.0257492
206965871.104000,-47.215477
207313013.376000,-47.2644463
207660155.648000,-47.4351921
208007297.920000,-47.5126038
208354440.192000,-47.6553802
208701582.464000,-47.9084473
209048724.736000,-47.9755974
209395867.008000,-48.1271362
209743009.280000,-48.3211937
210090151.552000,-48.4930573
210437293.824000,-48.6600494
210784436.096000,-48.824295
211131578.368000,-49.0826759
211478720.640000,-49.2809372
211825862.912000,-49.4420471
212173005.184000,-49.6674843
212520147.456000,-49.9472542
212867289.728000,-50.0989647
213214432.000000,-50.3662758
213561574.272000,-50.6081734
213908716.544000,-50.9011726
214255858.816000,-51.024498
214603001.088000,-51.3880272
214950143.360000,-51.7263069
215297285.632000,-51.9018974
215644427.904000,-52.2684059
215991570.176000,-52.5566902
216338712.448000,-52.9434166
216685854.720000,-53.2682304
217032996.992000,-53.5842323
217380139.264000,-54.1349487
217727281.536000,-54.4689865
218074423.808000,-54.8389473
218421566.080000,-55.3626633
218768708.352000,-56.0728111
219115850.624000,-56.7479858
219462992.896000,-57.256321
219810135.168000,-57.8340225
220157277.440000,-58.4753265
220504419.712000,-59.0499763
220851561.984000,-59.1356392
221198704.256000,-59.1088905
221545846.528000,-58.7122803
221892988.800000,-57.8016663
222240131.072000,-56.8525963
222587273.344000,-55.4811783
222934415.616000,-54.2874947
223281557.888000,-53.074192
223628700.160000,-52.1477737
223975842.432000,-51.1012344
224322984.704000,-50.3403778
224670126.976000,-49.4705391
225017269.248000,-48.6272125
225364411.520000,-47.9755287
225711553.792000,-47.3709717
226058696.064000,-46.7733421
226405838.336000,-46.2682495
226752980.608000,-45.7645226
227100122.880000,-45.3278008
227447265.152000,-44.9277496
227794407.424000,-44.4911308
228141549.696000,-44.1073341
228488691.968000,-43.8232651
228835834.240000,-43.491539
229182976.512000,-43.1441689
229530118.784000,-42.8790627
229877261.056000,-42.594902
230224403.328000,-42.3026695
230571545.600000,-42.0350113
230918687.872000,-41.8428383
231265830.144000,-41.6065674
231612972.416000,-41.3620186
231960114.688000,-41.1666145
232307256.960000,-41.0014191
232654399.232000,-40.8324127
233001541.504000,-40.6319809
233348683.776000,-40.5070648
233695826.048000,-40.3760796
234042968.320000,-40.2276154
234390110.592000,-40.1438217
234737252.864000,-40.0685577
235084395.136000,-40.0179024
235431537.408000,-39.9104004
235778679.680000,-39.8764
236125821.952000,-39.9198074
236472964.224000,-39.919529
236820106.496000,-39.8881912
237167248.768000,-39.9534798
237514391.040000,-40.0384521
237861533.312000,-40.0583115
238208675.584000,-40.1463966
238555817.856000,-40.2468948
238902960.128000,-40.3845062
239250102.400000,-40.4746628
239597244.672000,-40.656105
239944386.944000,-40.8607979
240291529.216000,-41.0284424
240638671.488000,-41.2246208
240985813.760000,-41.4443436
241332956.032000,-41.7254143
241680098.304000,-41.961113
242027240.576000,-42.2408371
242374382.848000,-42.6132851
242721525.120000,-42.8515892
243068667.392000,-43.1643524
243415809.664000,-43.5643959
243762951.936000,-43.9246216
244110094.208000,-44.3009148
244457236.480000,-44.7077408
244804378.752000,-45.1737976
245151521.024000,-45.5713959
245498663.296000,-46.0646362
245845805.568000,-46.5757179
246192947.840000,-47.097332
246540090.112000,-47.6278877
246887232.384000,-48.1889191
247234374.656000,-48.7324409
247581516.928000,-49.3023376
247928659.200000,-49.8352394
248275801.472000,-50.4999771
248622943.744000,-51.1068077
248970086.016000,-51.6866989
249317228.288000,-52.2809181
249664370.560000,-52.9804306
250011512.832000,-53.5064583
250358655.104000,-54.1751862
250705797.376000,-54.988636
251052939.648000,-55.6074295
251400081.920000,-56.3897591
251747224.192000,-57.2782822
252094366.464000,-57.9302139
252441508.736000,-58.7261429
252788651.008000,-59.548027
253135793.280000,-60.1318092
253482935.552000,-61.0471725
253830077.824000,-61.3157272
254177220.096000,-61.8292046
254524362.368000,-61.6788406
254871504.640000,-61.1632957
255218646.912000,-60.1830826
255565789.184000,-59.4163017
255912931.456000,-58.6654892
256260073.728000,-57.5937538
256607216.000000,-56.5065117
256954358.272000,-55.5108681
257301500.544000,-54.558075
257648642.816000,-53.5798798
257995785.088000,-52.7777863
258342927.360000,-51.8142586
258690069.632000,-51.0347481
259037211.904000,-50.1487846
259384354.176000,-49.3862152
259731496.448000,-48.6032143
260078638.720000,-47.8696327
260425780.992000,-47.0910339
260772923.264000,-46.5089455
261120065.536000,-45.8365631
261467207.808000,-45.168438
261814350.080000,-44.6424179
262161492.352000,-44.0545158
262508634.624000,-43.6352425
262855776.896000,-43.0793266
263202919.168000,-42.6412315
263550061.440000,-42.24049
263897203.712000,-41.8478012
264244345.984000,-41.5151176
264591488.256000,-41.2588997
264938630.528000,-41.0132065
265285772.800000,-40.7589493
265632915.072000,-40.5670471
265980057.344000,-40.4650841
266327199.616000,-40.3636436
266674341.888000,-40.2526932
267021484.160000,-40.1954384
267368626.432000,-40.1999664
267715768.704000,-40.1443405
268062910.976000,-40.1164093
268410053.248000,-40.1173401
268757195.520000,-40.1503754
269104337.792000,-40.15271
269451480.064000,-40.1514664
269798622.336000,-40.2449379
270145764.608000,-40.2980804
270492906.880000,-40.310257
270840049.152000,-40.3956413
271187191.424000,-40.5203476
271534333.696000,-40.5315514
271881475.968000,-40.6591988
272228618.240000,-40.7906837
272575760.512000,-40.8968201
272922902.784000,-40.9599686
