Frequency_Hz,Amplitude
39643296.000000,-74.9891891
39990438.272000,-74.4673843
40337580.544000,-74.9801559
40684722.816000,-75.0249634
41031865.088000,-73.9741058
41379007.360000,-74.5325394
41726149.632000,-74.5326309
42073291.904000,-73.9346771
42420434.176000,-73.069603
42767576.448000,-72.6856537
43114718.720000,-71.8803024
43461860.992000,-71.3893967
43809003.264000,-70.3825684
44156145.536000,-69.2417068
44503287.808000,-67.496666
44850430.080000,-66.2993317
45197572.352000,-65.0132294
45544714.624000,-63.3367081
45891856.896000,-61.4376907
46238999.168000,-59.4078865
46586141.440000,-56.3524017
46933283.712000,-53.1106148
47280425.984000,-51.3653717
47627568.256000,-52.1211319
47974710.528000,-55.0706062
48321852.800000,-58.2383919
48668995.072000,-60.4839821
49016137.344000,-62.5646935
49363279.616000,-64.1001358
49710421.888000,-65.0736389
50057564.160000,-66.2661209
50404706.432000,-67.4251633
50751848.704000,-68.3637466
51098990.976000,-69.5696335
51446133.248000,-69.4998322
51793275.520000,-69.4642029
52140417.792000,-70.6999893
52487560.064000,-70.1139374
52834702.336000,-70.2789001
53181844.608000,-70.4627991
53528986.880000,-70.3703995
53876129.152000,-70.5293579
54223271.424000,-70.3779449
54570413.696000,-71.2829208
54917555.968000,-71.1968536
55264698.240000,-70.3143692
55611840.512000,-70.4795074
55958982.784000,-70.5304642
56306125.056000,-70.6390381
56653267.328000,-70.7184372
57000409.600000,-70.8621063
57347551.872000,-69.8179245
57694694.144000,-70.1314697
58041836.416000,-70.5726929
58388978.688000,-69.8974838
58736120.960000,-69.7236786
59083263.232000,-70.2407608
59430405.504000,-69.0095673
59777547.776000,-69.6379471
60124690.048000,-69.3130417
60471832.320000,-69.0622253
60818974.592000,-68.9576416
61166116.864000,-69.4269867
61513259.136000,-68.474823
61860401.408000,-68.5493546
62207543.680000,-68.3085175
62554685.952000,-67.9869537
62901828.224000,-67.9564819
63248970.496000,-67.8021774
63596112.768000,-67.2165604
63943255.040000,-67.6968994
64290397.312000,-67.2018127
64637539.584000,-66.4342651
64984681.856000,-66.390213
65331824.128000,-65.8744659
65678966.400000,-65.4938507
66026108.672000,-64.9267578
66373250.944000,-64.0549774
66720393.216000,-63.5188789
67067535.488000,-62.8007851
67414677.760000,-61.835392
67761820.032000,-60.7721939
68108962.304000,-59.9215088
68456104.576000,-59.8621254
68803246.848000,-61.5014877
69150389.120000,-64.2210159
69497531.392000,-67.7491989
69844673.664000,-70.9222183
70191815.936000,-72.9213562
70538958.208000,-74.7911911
70886100.480000,-74.3591461
71233242.752000,-74.2154846
71580385.024000,-73.6669159
71927527.296000,-72.3565903
72274669.568000,-72.4696579
72621811.840000,-71.4821091
72968954.112000,-72.2120972
73316096.384000,-71.1521988
73663238.656000,-71.332962
74010380.928000,-69.9199448
74357523.200000,-69.6130066
74704665.472000,-69.3723602
75051807.744000,-69.9528732
75398950.016000,-69.9362564
75746092.288000,-69.6324692
76093234.560000,-69.2285385
76440376.832000,-69.1610565
76787519.104000,-68.7639236
77134661.376000,-69.0683899
77481803.648000,-68.9475861
77828945.920000,-68.7807159
78176088.192000,-69.3185577
78523230.464000,-68.9885941
78870372.736000,-69.0558472
79217515.008000,-68.9304504
79564657.280000,-69.2787476
79911799.552000,-69.4737015
80258941.824000,-68.8700562
80606084.096000,-69.2570877
80953226.368000,-69.0370178
81300368.640000,-68.9659805
81647510.912000,-69.2206039
81994653.184000,-69.2396088
82341795.456000,-68.676918
82688937.728000,-69.4166183
83036080.000000,-69.3715668
83383222.272000,-69.0758057
83730364.544000,-69.8192902
84077506.816000,-68.2322235
84424649.088000,-68.4254837
84771791.360000,-68.4275665
85118933.632000,-67.6564484
85466075.904000,-67.7476349
85813218.176000,-67.548996
86160360.448000,-67.0881348
86507502.720000,-66.4874039
86854644.992000,-66.1103439
87201787.264000,-65.8970032
87548929.536000,-65.1306763
87896071.808000,-64.7027054
88243214.080000,-64.6040955
88590356.352000,-63.6990814
88937498.624000,-63.7602959
89284640.896000,-62.8990326
89631783.168000,-63.3384323
89978925.440000,-63.1561012
90326067.712000,-63.0301018
90673209.984000,-63.4855804
91020352.256000,-63.5622978
91367494.528000,-63.9949455
91714636.800000,-63.9782028
92061779.072000,-64.6420135
92408921.344000,-64.5726242
92756063.616000,-64.4313507
93103205.888000,-64.649498
93450348.160000,-64.8263397
93797490.432000,-65.3066254
94144632.704000,-65.2593842
94491774.976000,-66.1625443
94838917.248000,-66.0778427
95186059.520000,-66.9701233
95533201.792000,-67.2924118
95880344.064000,-68.1269608
96227486.336000,-68.5747528
96574628.608000,-68.5951157
96921770.880000,-68.4229126
97268913.152000,-69.2710266
97616055.424000,-68.9722519
97963197.696000,-68.6974945
98310339.968000,-68.6957016
98657482.240000,-68.9363403
99004624.512000,-68.1363602
99351766.784000,-68.7207947
99698909.056000,-67.8527222
100046051.328000,-68.3982697
100393193.600000,-67.3973083
100740335.872000,-67.960022
101087478.144000,-67.3478394
101434620.416000,-66.7625504
101781762.688000,-66.5711594
102128904.960000,-66.6958847
102476047.232000,-66.1695709
102823189.504000,-65.9792175
103170331.776000,-65.2370529
103517474.048000,-64.6235352
103864616.320000,-63.5385933
104211758.592000,-62.9915733
104558900.864000,-62.0885582
104906043.136000,-61.015358
105253185.408000,-59.8627014
105600327.680000,-58.6585922
105947469.952000,-57.4401627
106294612.224000,-56.3588715
106641754.496000,-55.0619431
106988896.768000,-53.9348564
107336039.040000,-52.9520226
107683181.312000,-52.1940765
108030323.584000,-51.5222054
108377465.856000,-51.2440376
108724608.128000,-51.1723099
109071750.400000,-51.1368904
109418892.672000,-51.2953491
109766034.944000,-51.5581131
110113177.216000,-51.8728752
110460319.488000,-52.0638008
110807461.760000,-52.3407707
111154604.032000,-52.695282
111501746.304000,-52.9142418
111848888.576000,-53.0487175
112196030.848000,-53.4308128
112543173.120000,-53.6319427
112890315.392000,-53.7733612
113237457.664000,-53.95681
113584599.936000,-54.1769981
113931742.208000,-54.3645821
114278884.480000,-54.5263329
114626026.752000,-54.7392807
114973169.024000,-54.8496399
115320311.296000,-55.0817184
115667453.568000,-55.1941872
116014595.840000,-55.3832703
116361738.112000,-55.6231117
116708880.384000,-55.7988701
117056022.656000,-55.910675
117403164.928000,-56.0701141
117750307.200000,-56.0615921
118097449.472000,-56.2361984
118444591.744000,-56.5086555
118791734.016000,-56.5153389
119138876.288000,-56.6786423
119486018.560000,-56.6085625
119833160.832000,-56.963028
120180303.104000,-57.1922073
120527445.376000,-57.3607788
120874587.648000,-57.7246284
121221729.920000,-58.1637154
121568872.192000,-58.3867683
121916014.464000,-58.7720108
122263156.736000,-59.2681732
122610299.008000,-59.7649612
122957441.280000,-60.4752808
123304583.552000,-60.8449326
123651725.824000,-61.2545815
123998868.096000,-61.3271751
124346010.368000,-61.6988106
124693152.640000,-62.0638771
125040294.912000,-60.1276169
125387437.184000,-61.8454285
125734579.456000,-62.434391
126081721.728000,-62.7093887
126428864.000000,-62.7935257
126776006.272000,-62.6828575
127123148.544000,-62.450016
127470290.816000,-62.2692337
127817433.088000,-62.0657272
128164575.360000,-61.8666115
128511717.632000,-61.5441132
128858859.904000,-61.5476227
129206002.176000,-61.30159
129553144.448000,-61.1970177
129900286.720000,-61.1891327
130247428.992000,-60.7069778
130594571.264000,-60.9596519
130941713.536000,-60.5873222
131288855.808000,-60.7161522
131635998.080000,-60.7580338
131983140.352000,-60.7772713
132330282.624000,-61.1876183
132677424.896000,-61.5434074
133024567.168000,-62.0198288
133371709.440000,-62.3129005
133718851.712000,-63.1609612
134065993.984000,-63.8263664
134413136.256000,-64.0320129
134760278.528000,-64.7581177
135107420.800000,-64.830162
135454563.072000,-65.2972565
135801705.344000,-65.6339035
136148847.616000,-66.142868
136495989.888000,-66.4658813
136843132.160000,-66.3736649
137190274.432000,-67.2311325
137537416.704000,-67.0851288
137884558.976000,-66.9544754
138231701.248000,-66.7382965
138578843.520000,-66.8408127
138925985.792000,-66.7465515
139273128.064000,-66.8995743
139620270.336000,-67.074707
139967412.608000,-66.4479675
140314554.880000,-66.5066223
140661697.152000,-65.9679413
141008839.424000,-65.6614151
141355981.696000,-65.5636826
141703123.968000,-65.5856323
142050266.240000,-65.0550461
142397408.512000,-65.2604599
142744550.784000,-64.6778107
143091693.056000,-64.5619354
143438835.328000,-64.2884903
143785977.600000,-64.3796997
144133119.872000,-64.3440247
144480262.144000,-64.6616745
144827404.416000,-64.6504364
145174546.688000,-64.7027512
145521688.960000,-64.6959152
145868831.232000,-64.9429474
146215973.504000,-65.3730927
146563115.776000,-65.5524826
146910258.048000,-65.6308517
147257400.320000,-66.1508942
147604542.592000,-66.6300583
147951684.864000,-66.6411896
148298827.136000,-67.5867615
148645969.408000,-67.9261475
148993111.680000,-68.1487656
149340253.952000,-68.5805817
149687396.224000,-67.8102875
150034538.496000,-67.0476074
150381680.768000,-69.1471176
150728823.040000,-69.9094009
151075965.312000,-70.8819656
151423107.584000,-71.3264847
151770249.856000,-71.3781128
152117392.128000,-71.8954849
152464534.400000,-72.5919113
152811676.672000,-72.4913788
153158818.944000,-72.226532
153505961.216000,-73.3007355
153853103.488000,-73.5842285
154200245.760000,-74.2051239
154547388.032000,-72.9713974
154894530.304000,-74.570488
155241672.576000,-74.4791489
155588814.848000,-74.3239059
155935957.120000,-74.002243
156283099.392000,-73.712883
156630241.664000,-74.0848389
156977383.936000,-73.5688629
157324526.208000,-73.4497375
157671668.480000,-72.8934937
158018810.752000,-73.0558701
158365953.024000,-72.3482056
158713095.296000,-72.3695831
159060237.568000,-72.0643616
159407379.840000,-71.6664047
159754522.112000,-71.6773453
160101664.384000,-70.9613876
160448806.656000,-71.3321762
160795948.928000,-70.9259491
161143091.200000,-69.7706146
161490233.472000,-69.6777649
161837375.744000,-70.1196594
162184518.016000,-69.2296982
162531660.288000,-69.2687683
162878802.560000,-68.7802277
163225944.832000,-68.6179352
163573087.104000,-68.3018951
163920229.376000,-68.391716
164267371.648000,-67.8349991
164614513.920000,-67.491478
164961656.192000,-67.2023926
165308798.464000,-67.1925278
165655940.736000,-67.1741791
166003083.008000,-66.6817017
166350225.280000,-66.20578
166697367.552000,-66.5244904
167044509.824000,-65.8073425
167391652.096000,-65.7936935
167738794.368000,-65.600174
168085936.640000,-65.4304962
168433078.912000,-65.5590515
168780221.184000,-64.9792252
169127363.456000,-64.7361145
169474505.728000,-64.270813
169821648.000000,-63.9959488
170168790.272000,-64.0675201
170515932.544000,-63.4255867
170863074.816000,-63.0111313
171210217.088000,-62.6500816
171557359.360000,-62.6672287
171904501.632000,-62.1476784
172251643.904000,-61.8305817
172598786.176000,-61.6074562
172945928.448000,-61.0921326
173293070.720000,-60.8027115
173640212.992000,-60.4535789
173987355.264000,-59.9797478
174334497.536000,-59.6215134
174681639.808000,-59.4169006
175028782.080000,-58.9262238
175375924.352000,-58.6034584
175723066.624000,-58.5103951
176070208.896000,-58.0395432
176417351.168000,-57.9148407
176764493.440000,-57.4870911
177111635.712000,-57.3355598
177458777.984000,-57.2630577
177805920.256000,-57.0124054
178153062.528000,-56.7447548
178500204.800000,-56.7210655
178847347.072000,-56.5487213
179194489.344000,-56.4631386
179541631.616000,-56.3260536
179888773.888000,-56.3480263
180235916.160000,-56.4035835
180583058.432000,-56.227623
180930200.704000,-56.2560844
181277342.976000,-56.270153
181624485.248000,-56.296154
181971627.520000,-56.1316795
182318769.792000,-56.2415123
182665912.064000,-56.1753159
183013054.336000,-56.281662
183360196.608000,-56.3923454
183707338.880000,-56.5190468
184054481.152000,-56.5559578
184401623.424000,-56.5463066
184748765.696000,-56.7681427
185095907.968000,-56.9620476
185443050.240000,-56.8816948
185790192.512000,-57.0552292
186137334.784000,-57.4071121
186484477.056000,-57.6771126
186831619.328000,-57.7398262
187178761.600000,-57.948864
187525903.872000,-58.1887093
187873046.144000,-58.6042442
188220188.416000,-58.7893181
188567330.688000,-59.3008957
188914472.960000,-59.3774605
189261615.232000,-59.477005
189608757.504000,-59.9818192
189955899.776000,-59.9848404
190303042.048000,-60.1024399
190650184.320000,-60.1326752
190997326.592000,-60.3555336
191344468.864000,-60.0613289
191691611.136000,-59.6335411
192038753.408000,-59.635498
192385895.680000,-59.4988403
192733037.952000,-58.9210091
193080180.224000,-58.5920601
193427322.496000,-57.8811264
193774464.768000,-57.2199745
194121607.040000,-56.6108017
194468749.312000,-56.0390701
194815891.584000,-55.3139992
195163033.856000,-54.6793175
195510176.128000,-53.8367691
195857318.400000,-53.0833511
196204460.672000,-52.2726669
196551602.944000,-51.288456
196898745.216000,-50.6516762
197245887.488000,-49.8025055
197593029.760000,-48.9895859
197940172.032000,-48.091877
198287314.304000,-47.3889465
198634456.576000,-46.70784
198981598.848000,-46.0953789
199328741.120000,-45.5681686
199675883.392000,-45.2773819
200023025.664000,-44.9473343
200370167.936000,-44.8258629
200717310.208000,-44.7761917
201064452.480000,-44.7967072
201411594.752000,-44.8853912
201758737.024000,-45.0175323
202105879.296000,-45.1650124
202453021.568000,-45.4157829
202800163.840000,-45.5560493
203147306.112000,-45.7112846
203494448.384000,-45.9129257
203841590.656000,-46.084816
204188732.928000,-46.1813126
204535875.200000,-46.3019524
204883017.472000,-46.4805832
205230159.744000,-46.5775528
205577302.016000,-46.6509056
205924444.288000,-46.8654671
206271586.560000,-46.9951286
206618728.832000,-47.0911293
206965871.104000,-47.1875687
207313013.376000,-47.3440704
207660155.648000,-47.4260254
208007297.920000,-47.4595833
208354440.192000,-47.6774521
208701582.464000,-47.8920021
209048724.736000,-48.003067
209395867.008000,-48.1657257
209743009.280000,-48.3195648
210090151.552000,-48.4969635
210437293.824000,-48.6014481
210784436.096000,-48.795742
211131578.368000,-49.0996017
211478720.640000,-49.293541
211825862.912000,-49.4410973
212173005.184000,-49.6265602
212520147.456000,-49.9909515
212867289.728000,-50.1561317
213214432.000000,-50.3612785
213561574.272000,-50.6808395
213908716.544000,-50.9404449
214255858.816000,-51.1279411
214603001.088000,-51.4538345
214950143.360000,-51.7060852
215297285.632000,-51.9946632
215644427.904000,-52.3123055
215991570.176000,-52.5978394
216338712.448000,-52.843338
216685854.720000,-53.2523155
217032996.992000,-53.51717
217380139.264000,-54.1044235
217727281.536000,-54.4482384
218074423.808000,-55.0328674
218421566.080000,-55.4616928
218768708.352000,-56.0078354
219115850.624000,-56.5504875
219462992.896000,-57.2005959
219810135.168000,-57.6885834
220157277.440000,-58.483551
220504419.712000,-58.914608
220851561.984000,-59.232811
221198704.256000,-59.0404091
221545846.528000,-58.5669823
221892988.800000,-57.8023491
222240131.072000,-56.6045837
222587273.344000,-55.4888649
222934415.616000,-54.2201233
223281557.888000,-53.1705399
223628700.160000,-52.1467781
223975842.432000,-51.0883369
224322984.704000,-50.244545
224670126.976000,-49.3980904
225017269.248000,-48.6700249
225364411.520000,-47.9668007
225711553.792000,-47.4062538
226058696.064000,-46.7935677
226405838.336000,-46.2366829
226752980.608000,-45.7556572
227100122.880000,-45.3413849
227447265.152000,-44.8884583
227794407.424000,-44.5067787
228141549.696000,-44.1294479
228488691.968000,-43.841095
228835834.240000,-43.5095863
229182976.512000,-43.1398582
229530118.784000,-42.8547707
229877261.056000,-42.6041565
230224403.328000,-42.3208313
230571545.600000,-42.0551529
230918687.872000,-41.8479156
231265830.144000,-41.6219368
231612972.416000,-41.3698463
231960114.688000,-41.1560173
232307256.960000,-41.0124741
232654399.232000,-40.8048973
233001541.504000,-40.6585159
233348683.776000,-40.4928703
233695826.048000,-40.3982048
234042968.320000,-40.2229805
234390110.592000,-40.1414719
234737252.864000,-40.0626717
235084395.136000,-40.0152359
235431537.408000,-39.9387474
235778679.680000,-39.8816605
236125821.952000,-39.9159775
236472964.224000,-39.9028702
236820106.496000,-39.9102135
237167248.768000,-39.9670486
237514391.040000,-40.0266876
237861533.312000,-40.0680695
238208675.584000,-40.1531448
238555817.856000,-40.2804794
238902960.128000,-40.3972435
239250102.400000,-40.4858055
239597244.672000,-40.6814079
239944386.944000,-40.8670311
240291529.216000,-41.087841
240638671.488000,-41.2155418
240985813.760000,-41.4679642
241332956.032000,-41.7501755
241680098.304000,-41.9560394
242027240.576000,-42.2507095
242374382.848000,-42.5603447
242721525.120000,-42.8709717
243068667.392000,-43.1673431
243415809.664000,-43.5559959
243762951.936000,-43.9573135
244110094.208000,-44.3134689
244457236.480000,-44.7116928
244804378.752000,-45.1096458
245151521.024000,-45.6671677
245498663.296000,-46.0806503
245845805.568000,-46.5725555
246192947.840000,-47.1015167
246540090.112000,-47.5644188
246887232.384000,-48.1609764
247234374.656000,-48.7573586
247581516.928000,-49.3699303
247928659.200000,-49.9082069
248275801.472000,-50.4306068
248622943.744000,-51.1148186
248970086.016000,-51.6988106
249317228.288000,-52.3138084
249664370.560000,-52.9284019
250011512.832000,-53.3863907
250358655.104000,-54.2640877
250705797.376000,-55.0626755
251052939.648000,-55.691433
251400081.920000,-56.3833199
251747224.192000,-57.3047371
252094366.464000,-57.7389908
252441508.736000,-58.685257
252788651.008000,-59.6038284
253135793.280000,-60.1996727
253482935.552000,-60.9183006
253830077.824000,-61.5068703
254177220.096000,-61.3243523
254524362.368000,-61.4569016
254871504.640000,-60.9228363
255218646.912000,-60.0864563
255565789.184000,-59.4891701
255912931.456000,-58.6655807
256260073.728000,-57.5219421
256607216.000000,-56.5955353
256954358.272000,-55.4940605
257301500.544000,-54.4605331
257648642.816000,-53.6762085
257995785.088000,-52.7017555
258342927.360000,-51.8264275
258690069.632000,-50.9712486
259037211.904000,-50.149086
259384354.176000,-49.3825989
259731496.448000,-48.6096458
260078638.720000,-47.864296
260425780.992000,-47.1109886
260772923.264000,-46.4331017
261120065.536000,-45.8135452
261467207.808000,-45.1743927
261814350.080000,-44.6102257
262161492.352000,-44.0396385
262508634.624000,-43.5819817
262855776.896000,-43.0227165
263202919.168000,-42.6323051
263550061.440000,-42.2675667
263897203.712000,-41.8348732
264244345.984000,-41.5073776
264591488.256000,-41.2563629
264938630.528000,-41.0276413
265285772.800000,-40.7549629
265632915.072000,-40.5984879
265980057.344000,-40.4646683
266327199.616000,-40.3807449
266674341.888000,-40.2210312
267021484.160000,-40.1842461
267368626.432000,-40.178299
267715768.704000,-40.1158371
268062910.976000,-40.1022606
268410053.248000,-40.1306725
268757195.520000,-40.1303673
269104337.792000,-40.1287003
269451480.064000,-40.1973152
269798622.336000,-40.2388306
270145764.608000,-40.2887306
270492906.880000,-40.3391762
270840049.152000,-40.3865471
271187191.424000,-40.5273819
271534333.696000,-40.5899086
271881475.968000,-40.6334801
272228618.240000,-40.7703362
272575760.512000,-40.877243
272922902.784000,-40.9700546
