Frequency_Hz,Amplitude
39643296.000000,-75.0932922
39990438.272000,-74.7736435
40337580.544000,-75.0228577
40684722.816000,-75.2222672
41031865.088000,-74.6446838
41379007.360000,-74.4533615
41726149.632000,-74.1200638
42073291.904000,-73.1431656
42420434.176000,-72.8507156
42767576.448000,-72.5837402
43114718.720000,-72.2837372
43461860.992000,-71.4395065
43809003.264000,-70.7607956
44156145.536000,-69.3677292
44503287.808000,-68.6514893
44850430.080000,-66.3740234
45197572.352000,-65.3101349
45544714.624000,-63.3448792
45891856.896000,-61.503273
46238999.168000,-59.1216812
46586141.440000,-56.3711014
46933283.712000,-53.2455215
47280425.984000,-51.4786491
47627568.256000,-52.1610832
47974710.528000,-55.1455688
48321852.800000,-57.9119987
48668995.072000,-60.5188828
49016137.344000,-62.6816368
49363279.616000,-64.0594711
49710421.888000,-65.3728638
50057564.160000,-66.4095306
50404706.432000,-67.5241928
50751848.704000,-67.8451767
51098990.976000,-68.740509
51446133.248000,-69.934845
51793275.520000,-69.474617
52140417.792000,-69.9099121
52487560.064000,-70.6109848
52834702.336000,-70.9486694
53181844.608000,-70.3003616
53528986.880000,-71.1119308
53876129.152000,-71.1306076
54223271.424000,-71.2073898
54570413.696000,-70.7748947
54917555.968000,-70.9066391
55264698.240000,-70.2993546
55611840.512000,-70.3928757
55958982.784000,-71.6092911
56306125.056000,-70.8090591
56653267.328000,-71.2406769
57000409.600000,-70.4733124
57347551.872000,-70.8981552
57694694.144000,-70.9869461
58041836.416000,-71.4125214
58388978.688000,-70.0828171
58736120.960000,-69.9091263
59083263.232000,-69.8478165
59430405.504000,-70.040062
59777547.776000,-70.4211426
60124690.048000,-69.3603745
60471832.320000,-69.0946274
60818974.592000,-69.1034164
61166116.864000,-69.5398331
61513259.136000,-68.7380371
61860401.408000,-68.7040558
62207543.680000,-68.8193817
62554685.952000,-67.9340591
62901828.224000,-68.3809814
63248970.496000,-67.3026505
63596112.768000,-67.2635727
63943255.040000,-67.0518875
64290397.312000,-66.8475037
64637539.584000,-66.7325592
64984681.856000,-66.544693
65331824.128000,-66.06353
65678966.400000,-65.1255798
66026108.672000,-64.64534
66373250.944000,-64.7280273
66720393.216000,-63.7239189
67067535.488000,-62.7748299
67414677.760000,-61.9663506
67761820.032000,-60.7462654
68108962.304000,-59.9571342
68456104.576000,-59.8343697
68803246.848000,-61.2390556
69150389.120000,-64.2019272
69497531.392000,-67.4353256
69844673.664000,-71.1327896
70191815.936000,-73.0904541
70538958.208000,-73.7385483
70886100.480000,-74.3429489
71233242.752000,-73.9774551
71580385.024000,-72.870224
71927527.296000,-73.2314835
72274669.568000,-72.6731567
72621811.840000,-72.6162338
72968954.112000,-71.6693802
73316096.384000,-70.8330536
73663238.656000,-71.1781387
74010380.928000,-70.2827301
74357523.200000,-70.0402222
74704665.472000,-69.5435486
75051807.744000,-70.0501709
75398950.016000,-69.5606384
75746092.288000,-69.6162033
76093234.560000,-69.7442856
76440376.832000,-68.9349442
76787519.104000,-69.0387573
77134661.376000,-69.0499496
77481803.648000,-68.9281464
77828945.920000,-68.9024353
78176088.192000,-68.9701309
78523230.464000,-68.6750488
78870372.736000,-68.9450531
79217515.008000,-69.4760742
79564657.280000,-69.2318115
79911799.552000,-68.5062256
80258941.824000,-68.7671661
80606084.096000,-68.9674301
80953226.368000,-69.080101
81300368.640000,-69.6466522
81647510.912000,-69.0745316
81994653.184000,-69.6277847
82341795.456000,-69.121109
82688937.728000,-69.4056091
83036080.000000,-69.0459061
83383222.272000,-68.8629456
83730364.544000,-68.9962845
84077506.816000,-68.4832764
84424649.088000,-67.737236
84771791.360000,-68.2284393
85118933.632000,-68.2659225
85466075.904000,-67.2215958
85813218.176000,-67.3046875
86160360.448000,-66.6498871
86507502.720000,-66.2461014
86854644.992000,-65.8623047
87201787.264000,-66.2254868
87548929.536000,-65.6251984
87896071.808000,-64.6109772
88243214.080000,-64.1528015
88590356.352000,-63.6618042
88937498.624000,-63.3290863
89284640.896000,-63.5622406
89631783.168000,-62.8527603
89978925.440000,-62.9137115
90326067.712000,-63.2816162
90673209.984000,-63.3533096
91020352.256000,-63.7221794
91367494.528000,-63.892643
91714636.800000,-63.9958572
92061779.072000,-64.4268112
92408921.344000,-64.4086838
92756063.616000,-64.6923218
93103205.888000,-64.4680939
93450348.160000,-65.5948486
93797490.432000,-65.1869507
94144632.704000,-65.4768982
94491774.976000,-66.1246567
94838917.248000,-65.9177551
95186059.520000,-66.7496414
95533201.792000,-67.2207947
95880344.064000,-67.4211884
96227486.336000,-68.3188782
96574628.608000,-68.5454559
96921770.880000,-68.7967377
97268913.152000,-69.1412354
97616055.424000,-69.3850403
97963197.696000,-69.085144
98310339.968000,-68.9336624
98657482.240000,-69.0152969
99004624.512000,-68.2986145
99351766.784000,-68.0792542
99698909.056000,-68.5122604
100046051.328000,-68.3953781
100393193.600000,-67.4822159
100740335.872000,-67.6261139
101087478.144000,-67.2833481
101434620.416000,-67.1443634
101781762.688000,-66.6143646
102128904.960000,-66.2407913
102476047.232000,-66.4148941
102823189.504000,-65.8793106
103170331.776000,-64.4853439
103517474.048000,-64.3810272
103864616.320000,-63.759861
104211758.592000,-63.2956772
104558900.864000,-62.002018
104906043.136000,-61.0631828
105253185.408000,-60.0197067
105600327.680000,-58.8451958
105947469.952000,-57.7314873
106294612.224000,-56.4247551
106641754.496000,-55.1876526
106988896.768000,-54.0213928
107336039.040000,-52.944809
107683181.312000,-52.2168694
108030323.584000,-51.6251373
108377465.856000,-51.2734184
108724608.128000,-51.1944542
109071750.400000,-51.0715332
109418892.672000,-51.4050446
109766034.944000,-51.6092682
110113177.216000,-51.7608376
110460319.488000,-52.1020279
110807461.760000,-52.3526001
111154604.032000,-52.734375
111501746.304000,-52.8757935
111848888.576000,-53.2306252
112196030.848000,-53.4009247
112543173.120000,-53.5837669
112890315.392000,-53.7937889
113237457.664000,-53.856308
113584599.936000,-54.2494736
113931742.208000,-54.4032097
114278884.480000,-54.5013504
114626026.752000,-54.6586075
114973169.024000,-55.0360374
115320311.296000,-55.0166931
115667453.568000,-55.4207649
116014595.840000,-55.3614044
116361738.112000,-55.6679268
116708880.384000,-55.70224
117056022.656000,-55.9507408
117403164.928000,-55.8656387
117750307.200000,-56.2145081
118097449.472000,-56.2271347
118444591.744000,-56.5136604
118791734.016000,-56.6226845
119138876.288000,-56.6527252
119486018.560000,-56.8464241
119833160.832000,-56.9577332
120180303.104000,-57.3691063
120527445.376000,-57.554451
120874587.648000,-57.6471024
121221729.920000,-58.004364
121568872.192000,-58.52005
121916014.464000,-58.5990982
122263156.736000,-59.5868645
122610299.008000,-59.8101387
122957441.280000,-60.4492226
123304583.552000,-60.740284
123651725.824000,-61.5229568
123998868.096000,-61.6608315
124346010.368000,-61.633503
124693152.640000,-61.7262497
125040294.912000,-60.4661598
125387437.184000,-62.1170845
125734579.456000,-62.1832275
126081721.728000,-62.6693344
126428864.000000,-62.5503693
126776006.272000,-62.4908829
127123148.544000,-62.4864082
127470290.816000,-61.9296036
127817433.088000,-62.0938377
128164575.360000,-61.8714371
128511717.632000,-61.7759628
128858859.904000,-61.6983681
129206002.176000,-61.3390236
129553144.448000,-61.081356
129900286.720000,-60.7564316
130247428.992000,-60.7180977
130594571.264000,-61.0977058
130941713.536000,-60.7660904
131288855.808000,-60.6017189
131635998.080000,-60.7025146
131983140.352000,-60.9876823
132330282.624000,-61.0292511
132677424.896000,-61.6538162
133024567.168000,-61.7663612
133371709.440000,-62.8243866
133718851.712000,-62.9718361
134065993.984000,-63.794426
134413136.256000,-63.8559875
134760278.528000,-64.6395569
135107420.800000,-65.1387558
135454563.072000,-65.4272461
135801705.344000,-65.7944412
136148847.616000,-66.0106049
136495989.888000,-66.5529099
136843132.160000,-66.4262924
137190274.432000,-66.4315033
137537416.704000,-66.9080276
137884558.976000,-67.0106888
138231701.248000,-67.1711884
138578843.520000,-67.0622559
138925985.792000,-66.9838562
139273128.064000,-66.7322006
139620270.336000,-66.4852829
139967412.608000,-66.3687134
140314554.880000,-66.4772949
140661697.152000,-66.0816574
141008839.424000,-65.5762253
141355981.696000,-65.7767868
141703123.968000,-65.1553268
142050266.240000,-65.2126312
142397408.512000,-64.7067871
142744550.784000,-64.9310684
143091693.056000,-64.4453125
143438835.328000,-64.8140945
143785977.600000,-64.2726822
144133119.872000,-64.66465
144480262.144000,-64.8984985
144827404.416000,-64.4157028
145174546.688000,-65.0009918
145521688.960000,-64.879837
145868831.232000,-65.0686035
146215973.504000,-65.8128586
146563115.776000,-65.6790237
146910258.048000,-65.9731445
147257400.320000,-66.008049
147604542.592000,-66.4479904
147951684.864000,-67.4400101
148298827.136000,-68.1363449
148645969.408000,-67.9542923
148993111.680000,-68.4855194
149340253.952000,-68.9231644
149687396.224000,-68.3446884
150034538.496000,-66.6384354
150381680.768000,-68.8634491
150728823.040000,-69.9579086
151075965.312000,-71.2180939
151423107.584000,-71.2447205
151770249.856000,-72.0805206
152117392.128000,-71.5700226
152464534.400000,-72.2978134
152811676.672000,-72.6902084
153158818.944000,-73.0118332
153505961.216000,-73.8165359
153853103.488000,-73.737648
154200245.760000,-73.5792465
154547388.032000,-74.4378052
154894530.304000,-74.1157684
155241672.576000,-74.3095398
155588814.848000,-74.3907242
155935957.120000,-74.243988
156283099.392000,-74.1564713
156630241.664000,-74.6525192
156977383.936000,-73.109787
157324526.208000,-73.0490265
157671668.480000,-72.9060898
158018810.752000,-72.3843613
158365953.024000,-71.6830978
158713095.296000,-72.6876755
159060237.568000,-71.8119049
159407379.840000,-72.6000977
159754522.112000,-72.2475739
160101664.384000,-71.6536102
160448806.656000,-71.1914978
160795948.928000,-70.5416489
161143091.200000,-70.7768631
161490233.472000,-70.2773895
161837375.744000,-69.9063263
162184518.016000,-69.368988
162531660.288000,-69.1931839
162878802.560000,-68.5195847
163225944.832000,-68.6570435
163573087.104000,-68.4813843
163920229.376000,-68.1895218
164267371.648000,-67.5155792
164614513.920000,-67.3125076
164961656.192000,-67.3475723
165308798.464000,-67.8328781
165655940.736000,-66.969696
166003083.008000,-67.0650253
166350225.280000,-66.5266037
166697367.552000,-66.0345078
167044509.824000,-66.1351166
167391652.096000,-65.8463593
167738794.368000,-65.6680603
168085936.640000,-65.3338242
168433078.912000,-64.9016418
168780221.184000,-64.8491058
169127363.456000,-64.7774124
169474505.728000,-64.4264679
169821648.000000,-64.0039291
170168790.272000,-63.5566368
170515932.544000,-63.2925529
170863074.816000,-63.0504761
171210217.088000,-62.6001854
171557359.360000,-62.8659782
171904501.632000,-62.0692062
172251643.904000,-61.6277809
172598786.176000,-61.6229668
172945928.448000,-61.0608521
173293070.720000,-60.7083054
173640212.992000,-60.3214302
173987355.264000,-60.1434059
174334497.536000,-59.790844
174681639.808000,-59.2042084
175028782.080000,-59.0950966
175375924.352000,-58.6173592
175723066.624000,-58.4035149
176070208.896000,-58.1475525
176417351.168000,-57.7923393
176764493.440000,-57.4349327
177111635.712000,-57.4032211
177458777.984000,-57.2120705
177805920.256000,-57.0900154
178153062.528000,-56.8857346
178500204.800000,-56.7706108
178847347.072000,-56.6983299
179194489.344000,-56.3678474
179541631.616000,-56.5141144
179888773.888000,-56.4623146
180235916.160000,-56.3069878
180583058.432000,-56.2650681
180930200.704000,-56.3105469
181277342.976000,-56.2278671
181624485.248000,-56.3757935
181971627.520000,-56.2519417
182318769.792000,-56.3512001
182665912.064000,-56.319252
183013054.336000,-56.3321533
183360196.608000,-56.3241272
183707338.880000,-56.5748329
184054481.152000,-56.5482292
184401623.424000,-56.5190086
184748765.696000,-56.8096848
185095907.968000,-57.0251846
185443050.240000,-56.9745712
185790192.512000,-57.0054893
186137334.784000,-57.4788551
186484477.056000,-57.4877548
186831619.328000,-57.8310051
187178761.600000,-58.0622025
187525903.872000,-58.3312073
187873046.144000,-58.5648766
188220188.416000,-58.8866577
188567330.688000,-58.9284134
188914472.960000,-59.4715309
189261615.232000,-59.7705231
189608757.504000,-59.5829201
189955899.776000,-60.0337677
190303042.048000,-60.2284966
190650184.320000,-60.4706001
190997326.592000,-60.1683617
191344468.864000,-60.1221352
191691611.136000,-59.8810272
192038753.408000,-59.5807762
192385895.680000,-59.3156967
192733037.952000,-58.8127861
193080180.224000,-58.3607788
193427322.496000,-57.8332863
193774464.768000,-57.4562912
194121607.040000,-56.4905701
194468749.312000,-55.9650345
194815891.584000,-55.2982063
195163033.856000,-54.7150002
195510176.128000,-53.835743
195857318.400000,-53.1625671
196204460.672000,-52.2639999
196551602.944000,-51.4756966
196898745.216000,-50.6998062
197245887.488000,-49.7758904
197593029.760000,-48.9269524
197940172.032000,-48.1839256
198287314.304000,-47.3746681
198634456.576000,-46.7221336
198981598.848000,-46.1229019
199328741.120000,-45.6480255
199675883.392000,-45.2819366
200023025.664000,-45.0228653
200370167.936000,-44.7898064
200717310.208000,-44.7943382
201064452.480000,-44.8790894
201411594.752000,-44.9435425
201758737.024000,-45.0366898
202105879.296000,-45.1812477
202453021.568000,-45.4209671
202800163.840000,-45.5530548
203147306.112000,-45.7298889
203494448.384000,-45.9282265
203841590.656000,-46.0678596
204188732.928000,-46.1818314
204535875.200000,-46.2960663
204883017.472000,-46.5334053
205230159.744000,-46.6182518
205577302.016000,-46.6965218
205924444.288000,-46.8183403
206271586.560000,-46.9902153
206618728.832000,-47.0634651
206965871.104000,-47.1721077
207313013.376000,-47.4111824
207660155.648000,-47.4792023
208007297.920000,-47.6065254
208354440.192000,-47.7454567
208701582.464000,-47.8703842
209048724.736000,-47.9927483
209395867.008000,-48.1174545
209743009.280000,-48.3774109
210090151.552000,-48.5436592
210437293.824000,-48.6805458
210784436.096000,-48.9513435
211131578.368000,-49.1652794
211478720.640000,-49.2783661
211825862.912000,-49.4275093
212173005.184000,-49.7807999
212520147.456000,-49.9958801
212867289.728000,-50.148819
213214432.000000,-50.3990326
213561574.272000,-50.7156563
213908716.544000,-50.883213
214255858.816000,-51.1218262
214603001.088000,-51.4978065
214950143.360000,-51.7474861
215297285.632000,-52.0005074
215644427.904000,-52.3142166
215991570.176000,-52.6028557
216338712.448000,-52.8737106
216685854.720000,-53.241188
217032996.992000,-53.682621
217380139.264000,-54.2005424
217727281.536000,-54.5105209
218074423.808000,-55.0238457
218421566.080000,-55.4784279
218768708.352000,-56.0365295
219115850.624000,-56.7199974
219462992.896000,-57.2546425
219810135.168000,-58.0581093
220157277.440000,-58.7432518
220504419.712000,-59.0012741
220851561.984000,-59.1182365
221198704.256000,-59.042572
221545846.528000,-58.7615623
221892988.800000,-57.7276955
222240131.072000,-56.5782509
222587273.344000,-55.4105186
222934415.616000,-54.2616386
223281557.888000,-53.1195183
223628700.160000,-52.1258087
223975842.432000,-51.0948715
224322984.704000,-50.2260971
224670126.976000,-49.4524651
225017269.248000,-48.6848793
225364411.520000,-47.9846802
225711553.792000,-47.3878098
226058696.064000,-46.7869682
226405838.336000,-46.2945251
226752980.608000,-45.7507133
227100122.880000,-45.22789
227447265.152000,-44.9424515
227794407.424000,-44.5291862
228141549.696000,-44.1253738
228488691.968000,-43.7640572
228835834.240000,-43.5472374
229182976.512000,-43.1471748
229530118.784000,-42.8876801
229877261.056000,-42.6501007
230224403.328000,-42.3633232
230571545.600000,-42.0879517
230918687.872000,-41.8362236
231265830.144000,-41.6236649
231612972.416000,-41.3774948
231960114.688000,-41.1735725
232307256.960000,-41.0146141
232654399.232000,-40.8275414
233001541.504000,-40.6667671
233348683.776000,-40.4914284
233695826.048000,-40.4117813
234042968.320000,-40.247715
234390110.592000,-40.1589508
234737252.864000,-40.0757523
235084395.136000,-40.0413589
235431537.408000,-39.9230843
235778679.680000,-39.9220543
236125821.952000,-39.9415817
236472964.224000,-39.9038582
236820106.496000,-39.9204903
237167248.768000,-39.9894638
237514391.040000,-40.0356178
237861533.312000,-40.1036148
238208675.584000,-40.1572876
238555817.856000,-40.2743683
238902960.128000,-40.4348526
239250102.400000,-40.5164719
239597244.672000,-40.6940155
239944386.944000,-40.8910179
240291529.216000,-41.0689774
240638671.488000,-41.2684021
240985813.760000,-41.4935417
241332956.032000,-41.7678375
241680098.304000,-41.9969749
242027240.576000,-42.2583313
242374382.848000,-42.5832443
242721525.120000,-42.9423904
243068667.392000,-43.2247429
243415809.664000,-43.5468521
243762951.936000,-43.9773407
244110094.208000,-44.3805504
244457236.480000,-44.764122
244804378.752000,-45.1721573
245151521.024000,-45.6643028
245498663.296000,-46.1120949
245845805.568000,-46.6107292
246192947.840000,-47.1587486
246540090.112000,-47.6833839
246887232.384000,-48.1571846
247234374.656000,-48.8236504
247581516.928000,-49.3920555
247928659.200000,-49.9483833
248275801.472000,-50.4554482
248622943.744000,-51.1285286
248970086.016000,-51.7677422
249317228.288000,-52.4093246
249664370.560000,-52.8787193
250011512.832000,-53.4534187
250358655.104000,-54.4083862
250705797.376000,-55.0635338
251052939.648000,-55.5389671
251400081.920000,-56.5568733
251747224.192000,-57.2714767
252094366.464000,-58.1574097
252441508.736000,-58.895134
252788651.008000,-59.5578918
253135793.280000,-60.2563095
253482935.552000,-61.0352669
253830077.824000,-61.3718414
254177220.096000,-61.5828285
254524362.368000,-61.6196404
254871504.640000,-61.15411
255218646.912000,-60.3855629
255565789.184000,-59.5673714
255912931.456000,-58.389492
256260073.728000,-57.3081856
256607216.000000,-56.3982964
256954358.272000,-55.5057716
257301500.544000,-54.5424271
257648642.816000,-53.5852509
257995785.088000,-52.7581329
258342927.360000,-51.8546562
258690069.632000,-50.908474
259037211.904000,-50.0381737
259384354.176000,-49.2742195
259731496.448000,-48.5960464
260078638.720000,-47.8869667
260425780.992000,-47.0660858
260772923.264000,-46.4308891
261120065.536000,-45.8546715
261467207.808000,-45.1886482
261814350.080000,-44.6036873
262161492.352000,-44.0558929
262508634.624000,-43.5662155
262855776.896000,-43.0349045
263202919.168000,-42.6316452
263550061.440000,-42.2735901
263897203.712000,-41.8553429
264244345.984000,-41.5375137
264591488.256000,-41.2748032
264938630.528000,-41.0509911
265285772.800000,-40.7637253
265632915.072000,-40.6009254
265980057.344000,-40.4806023
266327199.616000,-40.388813
266674341.888000,-40.2600708
267021484.160000,-40.204052
267368626.432000,-40.1917076
267715768.704000,-40.1173935
268062910.976000,-40.1101227
268410053.248000,-40.1365242
268757195.520000,-40.1598969
269104337.792000,-40.1226158
269451480.064000,-40.1915703
269798622.336000,-40.2854042
270145764.608000,-40.3141518
270492906.880000,-40.353611
270840049.152000,-40.4290276
271187191.424000,-40.5138283
271534333.696000,-40.5799561
271881475.968000,-40.6556702
272228618.240000,-40.7878151
272575760.512000,-40.9003677
272922902.784000,-40.9589233
