Frequency_Hz,Amplitude
39643296.000000,-74.4189911
39990438.272000,-75.1116104
40337580.544000,-75.1510925
40684722.816000,-74.8238678
41031865.088000,-74.7438354
41379007.360000,-74.4843597
41726149.632000,-74.7073212
42073291.904000,-73.737587
42420434.176000,-72.6044769
42767576.448000,-72.7376633
43114718.720000,-71.4015198
43461860.992000,-71.4676056
43809003.264000,-70.0840378
44156145.536000,-68.9430237
44503287.808000,-67.6687927
44850430.080000,-66.4489746
45197572.352000,-64.9707184
45544714.624000,-63.1986237
45891856.896000,-61.4654808
46238999.168000,-59.5067978
46586141.440000,-56.3376122
46933283.712000,-53.0503731
47280425.984000,-51.3404045
47627568.256000,-52.1711273
47974710.528000,-55.0481987
48321852.800000,-57.9322014
48668995.072000,-60.7280655
49016137.344000,-62.6384392
49363279.616000,-64.0812988
49710421.888000,-65.3457108
50057564.160000,-66.6022949
50404706.432000,-67.6020737
50751848.704000,-67.9551773
51098990.976000,-68.9508057
51446133.248000,-69.3314667
51793275.520000,-69.5256042
52140417.792000,-70.4785233
52487560.064000,-70.6604309
52834702.336000,-69.9239502
53181844.608000,-70.2898331
53528986.880000,-70.6011887
53876129.152000,-70.6276932
54223271.424000,-70.8674774
54570413.696000,-70.969696
54917555.968000,-71.3238602
55264698.240000,-71.2000275
55611840.512000,-70.8846054
55958982.784000,-69.9941635
56306125.056000,-71.1138763
56653267.328000,-69.9617615
57000409.600000,-70.3025131
57347551.872000,-70.6835403
57694694.144000,-70.3554001
58041836.416000,-70.2799454
58388978.688000,-70.0961151
58736120.960000,-70.063118
59083263.232000,-70.0140381
59430405.504000,-69.7852936
59777547.776000,-69.6115494
60124690.048000,-68.8843307
60471832.320000,-69.7508469
60818974.592000,-69.4847031
61166116.864000,-69.0909882
61513259.136000,-68.7139969
61860401.408000,-68.3756409
62207543.680000,-68.6209412
62554685.952000,-67.7085266
62901828.224000,-67.7989197
63248970.496000,-67.7399979
63596112.768000,-67.8254013
63943255.040000,-67.1104584
64290397.312000,-67.5506439
64637539.584000,-66.7791901
64984681.856000,-66.3589249
65331824.128000,-65.7936554
65678966.400000,-65.4176865
66026108.672000,-65.0412827
66373250.944000,-64.073288
66720393.216000,-63.6549683
67067535.488000,-62.7837753
67414677.760000,-62.0771904
67761820.032000,-60.8086891
68108962.304000,-59.8362236
68456104.576000,-59.9906311
68803246.848000,-61.3095398
69150389.120000,-64.2532654
69497531.392000,-67.7690125
69844673.664000,-71.0083084
70191815.936000,-73.3048248
70538958.208000,-74.4009399
70886100.480000,-74.86689
71233242.752000,-73.9907455
71580385.024000,-73.9265671
71927527.296000,-72.6577454
72274669.568000,-71.9716949
72621811.840000,-72.0261459
72968954.112000,-72.0993423
73316096.384000,-71.0920639
73663238.656000,-70.8086014
74010380.928000,-70.6320114
74357523.200000,-70.2750626
74704665.472000,-69.1997604
75051807.744000,-69.5151901
75398950.016000,-69.5507431
75746092.288000,-69.0921555
76093234.560000,-69.5327454
76440376.832000,-69.3948593
76787519.104000,-69.1112747
77134661.376000,-69.2235565
77481803.648000,-68.8361588
77828945.920000,-68.5547638
78176088.192000,-68.7414703
78523230.464000,-68.969368
78870372.736000,-68.7424011
79217515.008000,-68.9106369
79564657.280000,-69.3451691
79911799.552000,-69.0664978
80258941.824000,-69.3022308
80606084.096000,-69.3089142
80953226.368000,-69.3961868
81300368.640000,-69.2351074
81647510.912000,-69.1520538
81994653.184000,-69.2913818
82341795.456000,-69.3151169
82688937.728000,-69.6437378
83036080.000000,-69.0376816
83383222.272000,-68.2132187
83730364.544000,-69.0626297
84077506.816000,-68.4025116
84424649.088000,-68.4918671
84771791.360000,-67.7532272
85118933.632000,-67.596405
85466075.904000,-67.8420944
85813218.176000,-67.2426758
86160360.448000,-66.964798
86507502.720000,-66.4305725
86854644.992000,-65.8201065
87201787.264000,-65.4617996
87548929.536000,-65.4623337
87896071.808000,-64.7531052
88243214.080000,-64.4566422
88590356.352000,-63.9012604
88937498.624000,-63.2590523
89284640.896000,-63.2637405
89631783.168000,-63.3006058
89978925.440000,-63.1121674
90326067.712000,-63.0066872
90673209.984000,-63.3304596
91020352.256000,-63.8393402
91367494.528000,-63.929882
91714636.800000,-63.9647675
92061779.072000,-64.5922775
92408921.344000,-64.2715454
92756063.616000,-64.8402634
93103205.888000,-64.8017883
93450348.160000,-64.5956955
93797490.432000,-65.5688248
94144632.704000,-65.5381165
94491774.976000,-66.0671844
94838917.248000,-66.5471649
95186059.520000,-67.0631027
95533201.792000,-67.2283783
95880344.064000,-68.1061401
96227486.336000,-67.9074631
96574628.608000,-68.5645981
96921770.880000,-68.7521133
97268913.152000,-68.8035202
97616055.424000,-68.7990723
97963197.696000,-68.6987686
98310339.968000,-68.8470383
98657482.240000,-68.3021088
99004624.512000,-68.1845551
99351766.784000,-68.5722733
99698909.056000,-67.9702682
100046051.328000,-68.1149063
100393193.600000,-67.3817596
100740335.872000,-67.2693405
101087478.144000,-67.4845123
101434620.416000,-66.877594
101781762.688000,-66.9150925
102128904.960000,-66.460083
102476047.232000,-66.6264191
102823189.504000,-65.4133987
103170331.776000,-64.8494186
103517474.048000,-64.5379944
103864616.320000,-63.8977203
104211758.592000,-62.7036552
104558900.864000,-62.0312233
104906043.136000,-61.1561394
105253185.408000,-60.0517426
105600327.680000,-58.994648
105947469.952000,-57.70755
106294612.224000,-56.3403358
106641754.496000,-55.1762199
106988896.768000,-53.9585228
107336039.040000,-53.021843
107683181.312000,-52.2467117
108030323.584000,-51.6218834
108377465.856000,-51.2986679
108724608.128000,-51.1382027
109071750.400000,-51.1402092
109418892.672000,-51.3708801
109766034.944000,-51.66959
110113177.216000,-51.9069748
110460319.488000,-52.1089058
110807461.760000,-52.4255676
111154604.032000,-52.65168
111501746.304000,-52.8862381
111848888.576000,-53.1249809
112196030.848000,-53.3741379
112543173.120000,-53.5656967
112890315.392000,-53.8423576
113237457.664000,-54.1095009
113584599.936000,-54.2132416
113931742.208000,-54.3793716
114278884.480000,-54.5975418
114626026.752000,-54.7208824
114973169.024000,-55.0317192
115320311.296000,-55.0719414
115667453.568000,-55.3954124
116014595.840000,-55.4115486
116361738.112000,-55.6195145
116708880.384000,-55.6841507
117056022.656000,-55.959877
117403164.928000,-56.0825348
117750307.200000,-56.0886497
118097449.472000,-56.189991
118444591.744000,-56.4779396
118791734.016000,-56.5311089
119138876.288000,-56.72192
119486018.560000,-57.0371437
119833160.832000,-57.1590118
120180303.104000,-57.3265076
120527445.376000,-57.6161766
120874587.648000,-57.8625488
121221729.920000,-58.0376778
121568872.192000,-58.447361
121916014.464000,-58.8002968
122263156.736000,-59.1838722
122610299.008000,-59.802784
122957441.280000,-60.1710777
123304583.552000,-60.5842323
123651725.824000,-61.3138962
123998868.096000,-61.7927284
124346010.368000,-61.6217155
124693152.640000,-61.4208069
125040294.912000,-60.3911552
125387437.184000,-62.1911545
125734579.456000,-62.4890022
126081721.728000,-62.4587364
126428864.000000,-62.4665222
126776006.272000,-62.1720505
127123148.544000,-62.4217415
127470290.816000,-62.1255875
127817433.088000,-61.8932686
128164575.360000,-61.9021683
128511717.632000,-61.5382881
128858859.904000,-61.4347992
129206002.176000,-61.3759422
129553144.448000,-61.1513824
129900286.720000,-60.8579788
130247428.992000,-61.1599579
130594571.264000,-60.7706375
130941713.536000,-60.6519356
131288855.808000,-60.4156799
131635998.080000,-60.6823578
131983140.352000,-60.9221916
132330282.624000,-61.3283043
132677424.896000,-61.5487785
133024567.168000,-61.9477539
133371709.440000,-62.4937859
133718851.712000,-63.032238
134065993.984000,-63.7267838
134413136.256000,-64.0819016
134760278.528000,-64.6825562
135107420.800000,-64.730957
135454563.072000,-65.0940933
135801705.344000,-65.3666916
136148847.616000,-66.6032715
136495989.888000,-66.1657333
136843132.160000,-66.7700958
137190274.432000,-67.2827606
137537416.704000,-67.0086441
137884558.976000,-66.3188782
138231701.248000,-67.3997345
138578843.520000,-66.6431656
138925985.792000,-66.6653366
139273128.064000,-66.558876
139620270.336000,-66.7418365
139967412.608000,-66.5253906
140314554.880000,-66.3005066
140661697.152000,-66.1343842
141008839.424000,-65.9265442
141355981.696000,-66.1971054
141703123.968000,-65.6009598
142050266.240000,-65.1270752
142397408.512000,-65.0324249
142744550.784000,-64.6480179
143091693.056000,-64.3375778
143438835.328000,-64.5667877
143785977.600000,-64.5442047
144133119.872000,-64.5711441
144480262.144000,-64.6385727
144827404.416000,-64.5298843
145174546.688000,-64.9135818
145521688.960000,-64.6827393
145868831.232000,-65.3034439
146215973.504000,-65.6494293
146563115.776000,-65.6908112
146910258.048000,-65.9649353
147257400.320000,-66.615654
147604542.592000,-67.1866531
147951684.864000,-66.7843246
148298827.136000,-67.6047668
148645969.408000,-68.048027
148993111.680000,-68.1137695
149340253.952000,-68.2202911
149687396.224000,-68.2338715
150034538.496000,-67.5461273
150381680.768000,-68.9141006
150728823.040000,-70.2003326
151075965.312000,-70.2368698
151423107.584000,-71.1477661
151770249.856000,-71.3075562
152117392.128000,-71.8346481
152464534.400000,-72.2949219
152811676.672000,-72.9993515
153158818.944000,-73.4081726
153505961.216000,-73.4275818
153853103.488000,-73.8395233
154200245.760000,-74.7125244
154547388.032000,-73.8826599
154894530.304000,-74.0693588
155241672.576000,-74.4129486
155588814.848000,-73.760643
155935957.120000,-74.0452499
156283099.392000,-74.3369675
156630241.664000,-73.7875214
156977383.936000,-73.6718445
157324526.208000,-73.1101074
157671668.480000,-73.7153931
158018810.752000,-73.3870087
158365953.024000,-72.3087006
158713095.296000,-72.5293198
159060237.568000,-72.4832611
159407379.840000,-71.6187744
159754522.112000,-71.8012085
160101664.384000,-71.9219971
160448806.656000,-71.1746979
160795948.928000,-71.056076
161143091.200000,-70.5292053
161490233.472000,-69.4999084
161837375.744000,-69.483429
162184518.016000,-69.2172012
162531660.288000,-69.4302063
162878802.560000,-69.5230484
163225944.832000,-68.871582
163573087.104000,-68.3538055
163920229.376000,-68.6422729
164267371.648000,-68.2061081
164614513.920000,-67.2468262
164961656.192000,-67.5849457
165308798.464000,-67.2096634
165655940.736000,-67.2801132
166003083.008000,-66.5456467
166350225.280000,-66.48629
166697367.552000,-66.4275894
167044509.824000,-66.1374664
167391652.096000,-66.2264481
167738794.368000,-65.5495682
168085936.640000,-65.5145798
168433078.912000,-65.1631241
168780221.184000,-64.7633209
169127363.456000,-64.499855
169474505.728000,-64.3572006
169821648.000000,-63.8671989
170168790.272000,-63.5894279
170515932.544000,-63.5680046
170863074.816000,-62.8901291
171210217.088000,-62.6573982
171557359.360000,-62.4192123
171904501.632000,-62.3067551
172251643.904000,-61.8244286
172598786.176000,-61.4257584
172945928.448000,-60.9412766
173293070.720000,-60.8079453
173640212.992000,-60.4434814
173987355.264000,-59.8329773
174334497.536000,-59.7387543
174681639.808000,-59.3259277
175028782.080000,-59.0005188
175375924.352000,-58.6481895
175723066.624000,-58.2439728
176070208.896000,-58.141098
176417351.168000,-57.7416039
176764493.440000,-57.5072594
177111635.712000,-57.3972855
177458777.984000,-57.1162758
177805920.256000,-56.9608421
178153062.528000,-56.8067741
178500204.800000,-56.5671234
178847347.072000,-56.6931419
179194489.344000,-56.4542847
179541631.616000,-56.3573303
179888773.888000,-56.4242554
180235916.160000,-56.3477783
180583058.432000,-56.1695023
180930200.704000,-56.3427238
181277342.976000,-56.3793831
181624485.248000,-56.1846504
181971627.520000,-56.3126907
182318769.792000,-56.2793083
182665912.064000,-56.1081696
183013054.336000,-56.4426956
183360196.608000,-56.3134766
183707338.880000,-56.266468
184054481.152000,-56.6366692
184401623.424000,-56.6874657
184748765.696000,-56.668026
185095907.968000,-56.9601402
185443050.240000,-57.1042061
185790192.512000,-57.1260376
186137334.784000,-57.3827477
186484477.056000,-57.5422249
186831619.328000,-57.9619598
187178761.600000,-57.9540329
187525903.872000,-58.393856
187873046.144000,-58.6311989
188220188.416000,-58.9031258
188567330.688000,-59.2926407
188914472.960000,-59.5688019
189261615.232000,-59.8732185
189608757.504000,-59.7833824
189955899.776000,-59.9208984
190303042.048000,-60.1973038
190650184.320000,-60.0822487
190997326.592000,-60.1694756
191344468.864000,-60.0929871
191691611.136000,-59.8245468
192038753.408000,-59.6276016
192385895.680000,-59.3065338
192733037.952000,-58.682457
193080180.224000,-58.3234444
193427322.496000,-58.0129509
193774464.768000,-57.2885933
194121607.040000,-56.7015762
194468749.312000,-55.9832344
194815891.584000,-55.3038025
195163033.856000,-54.6039543
195510176.128000,-53.9076118
195857318.400000,-53.0453873
196204460.672000,-52.2577286
196551602.944000,-51.3575897
196898745.216000,-50.6207581
197245887.488000,-49.7763634
197593029.760000,-48.9787178
197940172.032000,-48.1666298
198287314.304000,-47.4369125
198634456.576000,-46.7471504
198981598.848000,-46.0899162
199328741.120000,-45.6595802
199675883.392000,-45.2795486
200023025.664000,-45.0276337
200370167.936000,-44.8639641
200717310.208000,-44.8322258
201064452.480000,-44.8221931
201411594.752000,-44.9541893
201758737.024000,-45.0493622
202105879.296000,-45.2285652
202453021.568000,-45.4320946
202800163.840000,-45.5613632
203147306.112000,-45.7123604
203494448.384000,-45.8968124
203841590.656000,-46.0708046
204188732.928000,-46.2325592
204535875.200000,-46.2989273
204883017.472000,-46.4572906
205230159.744000,-46.6184959
205577302.016000,-46.7250252
205924444.288000,-46.8486862
206271586.560000,-46.9903412
206618728.832000,-47.1257439
206965871.104000,-47.1626816
207313013.376000,-47.3755264
207660155.648000,-47.4350853
208007297.920000,-47.598465
208354440.192000,-47.7202644
208701582.464000,-47.9391022
209048724.736000,-47.993084
209395867.008000,-48.1783028
209743009.280000,-48.3067436
210090151.552000,-48.5771446
210437293.824000,-48.6627769
210784436.096000,-48.909359
211131578.368000,-49.0649185
211478720.640000,-49.2819176
211825862.912000,-49.4973106
212173005.184000,-49.7127304
212520147.456000,-49.9568787
212867289.728000,-50.1615143
213214432.000000,-50.3556442
213561574.272000,-50.7107773
213908716.544000,-50.8950462
214255858.816000,-51.1959839
214603001.088000,-51.4344406
214950143.360000,-51.7481461
215297285.632000,-52.0006256
215644427.904000,-52.3316231
215991570.176000,-52.5567627
216338712.448000,-52.88974
216685854.720000,-53.2882996
217032996.992000,-53.5794754
217380139.264000,-53.9731445
217727281.536000,-54.5343971
218074423.808000,-54.9744339
218421566.080000,-55.4952469
218768708.352000,-56.0296974
219115850.624000,-56.7589951
219462992.896000,-57.4340324
219810135.168000,-58.1912384
220157277.440000,-58.6908875
220504419.712000,-58.9261131
220851561.984000,-59.4256516
221198704.256000,-59.1426964
221545846.528000,-58.6292152
221892988.800000,-57.9308167
222240131.072000,-56.8327332
222587273.344000,-55.3682976
222934415.616000,-54.3743095
223281557.888000,-53.1152878
223628700.160000,-52.2080803
223975842.432000,-51.0977211
224322984.704000,-50.1942787
224670126.976000,-49.4054108
225017269.248000,-48.6589088
225364411.520000,-47.9380646
225711553.792000,-47.3543549
226058696.064000,-46.8287163
226405838.336000,-46.2775803
226752980.608000,-45.7260132
227100122.880000,-45.3151016
227447265.152000,-44.9566116
227794407.424000,-44.471344
228141549.696000,-44.1113052
228488691.968000,-43.8236237
228835834.240000,-43.4952011
229182976.512000,-43.139843
229530118.784000,-42.8500519
229877261.056000,-42.6490746
230224403.328000,-42.3163185
230571545.600000,-42.0545044
230918687.872000,-41.845211
231265830.144000,-41.6305389
231612972.416000,-41.387291
231960114.688000,-41.1979828
232307256.960000,-41.0400887
232654399.232000,-40.8512192
233001541.504000,-40.665432
233348683.776000,-40.4807663
233695826.048000,-40.3958817
234042968.320000,-40.2481728
234390110.592000,-40.1667137
234737252.864000,-40.0974998
235084395.136000,-40.0322075
235431537.408000,-39.9274445
235778679.680000,-39.9093323
236125821.952000,-39.9315567
236472964.224000,-39.9311447
236820106.496000,-39.9240952
237167248.768000,-39.9838791
237514391.040000,-40.0437088
237861533.312000,-40.0787964
238208675.584000,-40.1963768
238555817.856000,-40.2824402
238902960.128000,-40.4152145
239250102.400000,-40.5197792
239597244.672000,-40.6831894
239944386.944000,-40.8912048
240291529.216000,-41.0647049
240638671.488000,-41.2601166
240985813.760000,-41.4993858
241332956.032000,-41.7620621
241680098.304000,-41.9572372
242027240.576000,-42.2514801
242374382.848000,-42.583931
242721525.120000,-42.8935471
243068667.392000,-43.1784134
243415809.664000,-43.5706177
243762951.936000,-43.9773216
244110094.208000,-44.3177376
244457236.480000,-44.7422791
244804378.752000,-45.1900635
245151521.024000,-45.6265564
245498663.296000,-46.1453438
245845805.568000,-46.6483688
246192947.840000,-47.1473007
246540090.112000,-47.671032
246887232.384000,-48.1613312
247234374.656000,-48.7571564
247581516.928000,-49.3078842
247928659.200000,-49.8746223
248275801.472000,-50.4309692
248622943.744000,-51.1854248
248970086.016000,-51.6926003
249317228.288000,-52.3557892
249664370.560000,-52.9761353
250011512.832000,-53.5818634
250358655.104000,-54.4129677
250705797.376000,-54.935215
251052939.648000,-55.7469978
251400081.920000,-56.5728264
251747224.192000,-57.2166748
252094366.464000,-57.8223572
252441508.736000,-58.8451805
252788651.008000,-59.6443863
253135793.280000,-60.3385773
253482935.552000,-60.8945351
253830077.824000,-61.3449707
254177220.096000,-61.3590088
254524362.368000,-61.2751923
254871504.640000,-60.920929
255218646.912000,-60.3084335
255565789.184000,-59.2636833
255912931.456000,-58.4753647
256260073.728000,-57.5194244
256607216.000000,-56.5092659
256954358.272000,-55.3839569
257301500.544000,-54.4793434
257648642.816000,-53.4689445
257995785.088000,-52.617836
258342927.360000,-51.8527107
258690069.632000,-50.9486656
259037211.904000,-50.0605965
259384354.176000,-49.4314537
259731496.448000,-48.5945778
260078638.720000,-47.8439751
260425780.992000,-47.0991135
260772923.264000,-46.455471
261120065.536000,-45.8843689
261467207.808000,-45.1875114
261814350.080000,-44.6394768
262161492.352000,-44.057457
262508634.624000,-43.5670509
262855776.896000,-43.0655937
263202919.168000,-42.616497
263550061.440000,-42.2531662
263897203.712000,-41.8590584
264244345.984000,-41.5527878
264591488.256000,-41.2519836
264938630.528000,-41.0367012
265285772.800000,-40.7826729
265632915.072000,-40.6179466
265980057.344000,-40.5085983
266327199.616000,-40.4055519
266674341.888000,-40.2657204
267021484.160000,-40.2012253
267368626.432000,-40.1856461
267715768.704000,-40.1586494
268062910.976000,-40.1275826
268410053.248000,-40.1223526
268757195.520000,-40.1754684
269104337.792000,-40.1585007
269451480.064000,-40.1806793
269798622.336000,-40.2757149
270145764.608000,-40.3206024
270492906.880000,-40.3433189
270840049.152000,-40.4197044
271187191.424000,-40.5119934
271534333.696000,-40.6053696
271881475.968000,-40.654171
272228618.240000,-40.7611542
272575760.512000,-40.8927841
272922902.784000,-40.9549103
