Frequency_Hz,Amplitude
39643296.000000,-75.4974442
39990438.272000,-74.8495026
40337580.544000,-74.4882965
40684722.816000,-74.2898788
41031865.088000,-75.0022583
41379007.360000,-75.2280884
41726149.632000,-74.8830261
42073291.904000,-73.7597961
42420434.176000,-72.7250671
42767576.448000,-72.6214523
43114718.720000,-71.7725525
43461860.992000,-71.4310532
43809003.264000,-70.4638138
44156145.536000,-68.5930176
44503287.808000,-68.2039413
44850430.080000,-66.97509
45197572.352000,-65.1686554
45544714.624000,-63.3935852
45891856.896000,-61.5749016
46238999.168000,-59.3711243
46586141.440000,-56.3818817
46933283.712000,-53.090519
47280425.984000,-51.5252342
47627568.256000,-52.163456
47974710.528000,-55.1255836
48321852.800000,-58.096241
48668995.072000,-60.6491127
49016137.344000,-62.6790733
49363279.616000,-63.9659119
49710421.888000,-65.5993652
50057564.160000,-66.6940384
50404706.432000,-67.5996704
50751848.704000,-68.3683853
51098990.976000,-69.6513443
51446133.248000,-69.2027283
51793275.520000,-69.6675415
52140417.792000,-70.7973328
52487560.064000,-70.7580872
52834702.336000,-70.4139252
53181844.608000,-71.6754303
53528986.880000,-70.5024185
53876129.152000,-71.8509827
54223271.424000,-70.3302994
54570413.696000,-71.464592
54917555.968000,-71.3719177
55264698.240000,-70.6320343
55611840.512000,-70.6214752
55958982.784000,-71.6300201
56306125.056000,-70.5688248
56653267.328000,-71.1128616
57000409.600000,-70.3558578
57347551.872000,-70.4657211
57694694.144000,-69.9033966
58041836.416000,-69.5445023
58388978.688000,-69.3517685
58736120.960000,-69.6830139
59083263.232000,-69.7559967
59430405.504000,-69.8216705
59777547.776000,-69.7554016
60124690.048000,-69.2110825
60471832.320000,-69.1925125
60818974.592000,-69.0959625
61166116.864000,-68.8894043
61513259.136000,-68.8567123
61860401.408000,-69.0708694
62207543.680000,-68.5097275
62554685.952000,-68.2936707
62901828.224000,-68.1748047
63248970.496000,-67.7719498
63596112.768000,-67.6659164
63943255.040000,-67.0295258
64290397.312000,-66.7995453
64637539.584000,-66.4799194
64984681.856000,-66.3552017
65331824.128000,-65.6034698
65678966.400000,-65.286171
66026108.672000,-64.6819382
66373250.944000,-64.4355927
66720393.216000,-63.5687714
67067535.488000,-62.678421
67414677.760000,-61.8355026
67761820.032000,-60.7354202
68108962.304000,-59.7473831
68456104.576000,-59.8561897
68803246.848000,-61.144558
69150389.120000,-63.8605919
69497531.392000,-67.7145462
69844673.664000,-70.5817413
70191815.936000,-73.9311295
70538958.208000,-74.780899
70886100.480000,-74.7658844
71233242.752000,-73.9931946
71580385.024000,-74.1109314
71927527.296000,-72.2917175
72274669.568000,-72.4985428
72621811.840000,-72.2678909
72968954.112000,-71.9050674
73316096.384000,-70.8981705
73663238.656000,-71.4890137
74010380.928000,-70.6009827
74357523.200000,-70.0969391
74704665.472000,-69.9098434
75051807.744000,-69.9671783
75398950.016000,-69.5995941
75746092.288000,-69.6000977
76093234.560000,-69.8491821
76440376.832000,-68.8286514
76787519.104000,-68.7038116
77134661.376000,-69.0025558
77481803.648000,-69.4004593
77828945.920000,-68.7275772
78176088.192000,-68.6358719
78523230.464000,-68.8218002
78870372.736000,-68.8095627
79217515.008000,-68.8317642
79564657.280000,-69.7952576
79911799.552000,-68.8890076
80258941.824000,-68.8121262
80606084.096000,-68.9750748
80953226.368000,-69.2569351
81300368.640000,-69.3205338
81647510.912000,-69.0876846
81994653.184000,-69.5820923
82341795.456000,-68.8142548
82688937.728000,-69.2451096
83036080.000000,-68.1335526
83383222.272000,-68.6182098
83730364.544000,-68.930481
84077506.816000,-68.2413788
84424649.088000,-67.7864761
84771791.360000,-68.1978912
85118933.632000,-67.9716187
85466075.904000,-67.7440796
85813218.176000,-67.4095535
86160360.448000,-67.1291885
86507502.720000,-66.4154358
86854644.992000,-66.644165
87201787.264000,-65.6543503
87548929.536000,-65.4150848
87896071.808000,-64.79879
88243214.080000,-64.3926315
88590356.352000,-64.0438843
88937498.624000,-63.5780716
89284640.896000,-63.2413139
89631783.168000,-63.3605499
89978925.440000,-63.4079857
90326067.712000,-63.0955467
90673209.984000,-63.4435577
91020352.256000,-63.6390533
91367494.528000,-63.7394409
91714636.800000,-64.2742004
92061779.072000,-64.5320282
92408921.344000,-64.5431747
92756063.616000,-64.8199234
93103205.888000,-64.9872208
93450348.160000,-65.1306992
93797490.432000,-65.1703873
94144632.704000,-65.2258301
94491774.976000,-66.335022
94838917.248000,-66.4419785
95186059.520000,-66.7178802
95533201.792000,-68.0368118
95880344.064000,-68.0171814
96227486.336000,-68.5328674
96574628.608000,-68.1918564
96921770.880000,-68.6113281
97268913.152000,-68.5224838
97616055.424000,-68.9041138
97963197.696000,-68.8076324
98310339.968000,-68.4325104
98657482.240000,-68.6808777
99004624.512000,-68.5486755
99351766.784000,-68.2705383
99698909.056000,-67.7085495
100046051.328000,-68.0496902
100393193.600000,-67.9625397
100740335.872000,-68.1359329
101087478.144000,-67.4941559
101434620.416000,-66.758049
101781762.688000,-66.8947144
102128904.960000,-66.4112015
102476047.232000,-66.1711731
102823189.504000,-65.6465607
103170331.776000,-65.1643906
103517474.048000,-64.3012085
103864616.320000,-63.6498413
104211758.592000,-63.012722
104558900.864000,-62.2670822
104906043.136000,-61.1326981
105253185.408000,-59.9342957
105600327.680000,-58.789299
105947469.952000,-57.627121
106294612.224000,-56.3408661
106641754.496000,-55.1484871
106988896.768000,-53.9399223
107336039.040000,-52.9714737
107683181.312000,-52.0541306
108030323.584000,-51.5853043
108377465.856000,-51.2845268
108724608.128000,-51.1806526
109071750.400000,-51.1164398
109418892.672000,-51.3869057
109766034.944000,-51.5737572
110113177.216000,-51.8353653
110460319.488000,-52.0996284
110807461.760000,-52.4403114
111154604.032000,-52.6609459
111501746.304000,-52.9051018
111848888.576000,-53.2271347
112196030.848000,-53.3451233
112543173.120000,-53.5480347
112890315.392000,-53.7255974
113237457.664000,-53.8923683
113584599.936000,-54.2761803
113931742.208000,-54.3890953
114278884.480000,-54.4777679
114626026.752000,-54.6319199
114973169.024000,-54.8935165
115320311.296000,-55.1489296
115667453.568000,-55.1891937
116014595.840000,-55.3608322
116361738.112000,-55.520256
116708880.384000,-55.7193108
117056022.656000,-55.9263039
117403164.928000,-55.9728432
117750307.200000,-56.2725983
118097449.472000,-56.2999306
118444591.744000,-56.4670715
118791734.016000,-56.4941826
119138876.288000,-56.7870445
119486018.560000,-56.9858932
119833160.832000,-57.0170364
120180303.104000,-57.1008224
120527445.376000,-57.5918694
120874587.648000,-57.6712265
121221729.920000,-58.0652351
121568872.192000,-58.5461349
121916014.464000,-58.8577194
122263156.736000,-59.0576782
122610299.008000,-59.8979073
122957441.280000,-60.35186
123304583.552000,-60.6436424
123651725.824000,-61.1044044
123998868.096000,-61.4275818
124346010.368000,-61.9087372
124693152.640000,-61.6480255
125040294.912000,-60.6301994
125387437.184000,-62.4337616
125734579.456000,-62.6998672
126081721.728000,-62.7448044
126428864.000000,-62.4838219
126776006.272000,-62.3616753
127123148.544000,-62.0093155
127470290.816000,-62.2609825
127817433.088000,-61.9440079
128164575.360000,-61.7418709
128511717.632000,-61.6291351
128858859.904000,-61.6126289
129206002.176000,-61.5575256
129553144.448000,-61.160881
129900286.720000,-61.0038033
130247428.992000,-60.8765907
130594571.264000,-60.484066
130941713.536000,-60.8145103
131288855.808000,-60.7245293
131635998.080000,-60.73946
131983140.352000,-61.0539284
132330282.624000,-61.2256966
132677424.896000,-61.4514084
133024567.168000,-61.8157654
133371709.440000,-62.687336
133718851.712000,-63.0577393
134065993.984000,-63.847187
134413136.256000,-64.2413635
134760278.528000,-64.6317444
135107420.800000,-64.9277802
135454563.072000,-65.3835831
135801705.344000,-65.5244598
136148847.616000,-65.841301
136495989.888000,-66.6703568
136843132.160000,-66.4782104
137190274.432000,-66.9220886
137537416.704000,-66.6054535
137884558.976000,-66.8117065
138231701.248000,-66.7742767
138578843.520000,-66.8972778
138925985.792000,-66.8736954
139273128.064000,-66.6270676
139620270.336000,-66.9694443
139967412.608000,-66.7570267
140314554.880000,-66.6854706
140661697.152000,-66.1104736
141008839.424000,-66.331398
141355981.696000,-65.4807892
141703123.968000,-65.6147385
142050266.240000,-64.9450607
142397408.512000,-65.1172562
142744550.784000,-64.7472458
143091693.056000,-64.317627
143438835.328000,-64.4504929
143785977.600000,-64.7989502
144133119.872000,-64.4880676
144480262.144000,-64.6046143
144827404.416000,-64.8100204
145174546.688000,-64.9450302
145521688.960000,-64.945755
145868831.232000,-64.88134
146215973.504000,-65.7737198
146563115.776000,-65.4583817
146910258.048000,-66.0901031
147257400.320000,-66.3797531
147604542.592000,-66.9690323
147951684.864000,-66.5352859
148298827.136000,-67.4790268
148645969.408000,-68.0526428
148993111.680000,-68.2155609
149340253.952000,-68.9175034
149687396.224000,-67.9613037
150034538.496000,-66.6839142
150381680.768000,-68.7394257
150728823.040000,-69.7349167
151075965.312000,-70.7085571
151423107.584000,-71.1049194
151770249.856000,-71.5623474
152117392.128000,-72.1857681
152464534.400000,-72.4912186
152811676.672000,-73.0970535
153158818.944000,-73.8450394
153505961.216000,-73.0496597
153853103.488000,-74.3453827
154200245.760000,-73.9223022
154547388.032000,-73.7492599
154894530.304000,-72.9770966
155241672.576000,-74.3458786
155588814.848000,-73.3087234
155935957.120000,-74.0438919
156283099.392000,-74.1135635
156630241.664000,-74.3427353
156977383.936000,-73.0225067
157324526.208000,-73.1927795
157671668.480000,-73.8605957
158018810.752000,-73.1523361
158365953.024000,-72.7165451
158713095.296000,-71.9718628
159060237.568000,-72.5789871
159407379.840000,-71.1282196
159754522.112000,-71.4197998
160101664.384000,-70.544075
160448806.656000,-70.3857803
160795948.928000,-69.8868866
161143091.200000,-70.2228546
161490233.472000,-70.0039215
161837375.744000,-69.3674622
162184518.016000,-69.2993317
162531660.288000,-69.3855896
162878802.560000,-68.7477493
163225944.832000,-67.932724
163573087.104000,-68.4345322
163920229.376000,-68.006958
164267371.648000,-67.7621613
164614513.920000,-68.2381134
164961656.192000,-67.6667557
165308798.464000,-67.319664
165655940.736000,-66.5469437
166003083.008000,-66.6824951
166350225.280000,-66.5653992
166697367.552000,-66.1391144
167044509.824000,-66.2286148
167391652.096000,-66.332428
167738794.368000,-65.6800537
168085936.640000,-65.791832
168433078.912000,-65.1165466
168780221.184000,-65.0387802
169127363.456000,-64.6821823
169474505.728000,-64.6393433
169821648.000000,-64.3252106
170168790.272000,-63.8097954
170515932.544000,-63.6906281
170863074.816000,-63.0849686
171210217.088000,-62.9892082
171557359.360000,-62.3977013
171904501.632000,-62.1804466
172251643.904000,-61.4950294
172598786.176000,-61.6643753
172945928.448000,-61.2623405
173293070.720000,-60.6170692
173640212.992000,-60.1016235
173987355.264000,-60.0098305
174334497.536000,-59.3938942
174681639.808000,-59.4080544
175028782.080000,-58.9840889
175375924.352000,-58.5381203
175723066.624000,-58.3753395
176070208.896000,-58.2607155
176417351.168000,-57.8462181
176764493.440000,-57.4714775
177111635.712000,-57.2231865
177458777.984000,-57.0794907
177805920.256000,-57.0137405
178153062.528000,-56.7769775
178500204.800000,-56.8114014
178847347.072000,-56.6235008
179194489.344000,-56.4784012
179541631.616000,-56.3115005
179888773.888000,-56.4561958
180235916.160000,-56.3233948
180583058.432000,-56.245163
180930200.704000,-56.2214165
181277342.976000,-56.3980904
181624485.248000,-56.1447716
181971627.520000,-56.1707115
182318769.792000,-56.3844032
182665912.064000,-56.2376404
183013054.336000,-56.3492432
183360196.608000,-56.3669662
183707338.880000,-56.4888954
184054481.152000,-56.5192451
184401623.424000,-56.6314049
184748765.696000,-56.7795792
185095907.968000,-57.0367699
185443050.240000,-57.0324554
185790192.512000,-57.1659737
186137334.784000,-57.393692
186484477.056000,-57.5171204
186831619.328000,-57.8728142
187178761.600000,-58.0483017
187525903.872000,-58.4833374
187873046.144000,-58.60495
188220188.416000,-58.9970512
188567330.688000,-59.0933685
188914472.960000,-59.3105583
189261615.232000,-59.6360588
189608757.504000,-59.6289368
189955899.776000,-60.1108551
190303042.048000,-60.2195587
190650184.320000,-60.2420425
190997326.592000,-60.2277718
191344468.864000,-60.1417122
191691611.136000,-59.899456
192038753.408000,-59.4753532
192385895.680000,-59.395668
192733037.952000,-58.8694916
193080180.224000,-58.3471527
193427322.496000,-57.7388611
193774464.768000,-57.4031258
194121607.040000,-56.5904427
194468749.312000,-55.9682617
194815891.584000,-55.2722015
195163033.856000,-54.6712456
195510176.128000,-53.7519646
195857318.400000,-53.0622444
196204460.672000,-52.2816048
196551602.944000,-51.4248657
196898745.216000,-50.6559677
197245887.488000,-49.8117943
197593029.760000,-48.951107
197940172.032000,-48.1518974
198287314.304000,-47.4290085
198634456.576000,-46.7065735
198981598.848000,-46.0989151
199328741.120000,-45.6554222
199675883.392000,-45.2635765
200023025.664000,-45.0328293
200370167.936000,-44.840477
200717310.208000,-44.7989426
201064452.480000,-44.8360977
201411594.752000,-44.9115028
201758737.024000,-45.0219536
202105879.296000,-45.1850624
202453021.568000,-45.4048424
202800163.840000,-45.5535316
203147306.112000,-45.7060204
203494448.384000,-45.9120712
203841590.656000,-46.1072159
204188732.928000,-46.1992683
204535875.200000,-46.3803406
204883017.472000,-46.4768562
205230159.744000,-46.612133
205577302.016000,-46.7150574
205924444.288000,-46.8727036
206271586.560000,-47.0295181
206618728.832000,-47.1130295
206965871.104000,-47.2007446
207313013.376000,-47.3609505
207660155.648000,-47.4675598
208007297.920000,-47.5767441
208354440.192000,-47.6684532
208701582.464000,-47.8839226
209048724.736000,-48.0522423
209395867.008000,-48.1698418
209743009.280000,-48.3210373
210090151.552000,-48.5857735
210437293.824000,-48.7663536
210784436.096000,-48.8941803
211131578.368000,-49.0762596
211478720.640000,-49.3175201
211825862.912000,-49.4307785
212173005.184000,-49.7681885
212520147.456000,-49.9950027
212867289.728000,-50.2593155
213214432.000000,-50.4427872
213561574.272000,-50.6463394
213908716.544000,-50.9710274
214255858.816000,-51.1882324
214603001.088000,-51.4332695
214950143.360000,-51.7534714
215297285.632000,-51.9996796
215644427.904000,-52.2719917
215991570.176000,-52.6788368
216338712.448000,-53.1039848
216685854.720000,-53.1724892
217032996.992000,-53.6575203
217380139.264000,-54.1432953
217727281.536000,-54.5704536
218074423.808000,-54.9603958
218421566.080000,-55.4605484
218768708.352000,-55.886879
219115850.624000,-56.7792702
219462992.896000,-57.0845337
219810135.168000,-57.9365196
220157277.440000,-58.5455513
220504419.712000,-58.962368
220851561.984000,-59.2926178
221198704.256000,-59.2690849
221545846.528000,-58.7582703
221892988.800000,-57.8820915
222240131.072000,-56.7595901
222587273.344000,-55.4655724
222934415.616000,-54.2642593
223281557.888000,-53.1962433
223628700.160000,-52.0902939
223975842.432000,-51.1107521
224322984.704000,-50.2844009
224670126.976000,-49.4489098
225017269.248000,-48.630928
225364411.520000,-47.9548683
225711553.792000,-47.4046288
226058696.064000,-46.8053246
226405838.336000,-46.2350693
226752980.608000,-45.8088303
227100122.880000,-45.331646
227447265.152000,-44.9593468
227794407.424000,-44.4716759
228141549.696000,-44.1633301
228488691.968000,-43.8505554
228835834.240000,-43.5237656
229182976.512000,-43.1234665
229530118.784000,-42.8818932
229877261.056000,-42.6165733
230224403.328000,-42.3172417
230571545.600000,-42.0973892
230918687.872000,-41.8299561
231265830.144000,-41.6479874
231612972.416000,-41.3599129
231960114.688000,-41.2000923
232307256.960000,-41.0022125
232654399.232000,-40.8403854
233001541.504000,-40.648819
233348683.776000,-40.4927101
233695826.048000,-40.4058113
234042968.320000,-40.2564316
234390110.592000,-40.1625175
234737252.864000,-40.0956268
235084395.136000,-40.0175476
235431537.408000,-39.9581528
235778679.680000,-39.9422989
236125821.952000,-39.9402199
236472964.224000,-39.910244
236820106.496000,-39.9112015
237167248.768000,-39.9840736
237514391.040000,-40.0555725
237861533.312000,-40.0730896
238208675.584000,-40.1908607
238555817.856000,-40.2922325
238902960.128000,-40.4154778
239250102.400000,-40.5246162
239597244.672000,-40.7177124
239944386.944000,-40.8997078
240291529.216000,-41.0847549
240638671.488000,-41.2556839
240985813.760000,-41.4989471
241332956.032000,-41.805912
241680098.304000,-41.9897308
242027240.576000,-42.2854156
242374382.848000,-42.5501213
242721525.120000,-42.8905907
243068667.392000,-43.2234383
243415809.664000,-43.588726
243762951.936000,-44.0116959
244110094.208000,-44.3759155
244457236.480000,-44.7805405
244804378.752000,-45.2757683
245151521.024000,-45.6271591
245498663.296000,-46.0684891
245845805.568000,-46.6233063
246192947.840000,-47.1580391
246540090.112000,-47.6495972
246887232.384000,-48.1499596
247234374.656000,-48.8641167
247581516.928000,-49.3972321
247928659.200000,-49.8600159
248275801.472000,-50.5033188
248622943.744000,-51.1940651
248970086.016000,-51.8242378
249317228.288000,-52.3780174
249664370.560000,-53.0069542
250011512.832000,-53.5894318
250358655.104000,-54.430294
250705797.376000,-54.9419899
251052939.648000,-55.7680397
251400081.920000,-56.4838943
251747224.192000,-57.3129082
252094366.464000,-57.9931259
252441508.736000,-58.7801971
252788651.008000,-59.5122452
253135793.280000,-60.2342415
253482935.552000,-60.9427528
253830077.824000,-61.4108696
254177220.096000,-61.6561623
254524362.368000,-61.6365814
254871504.640000,-60.815136
255218646.912000,-60.5627708
255565789.184000,-59.2715988
255912931.456000,-58.5484123
256260073.728000,-57.3603172
256607216.000000,-56.3739395
256954358.272000,-55.4700966
257301500.544000,-54.544632
257648642.816000,-53.5499763
257995785.088000,-52.6443901
258342927.360000,-51.7872086
258690069.632000,-51.0233192
259037211.904000,-50.0204887
259384354.176000,-49.3527832
259731496.448000,-48.6008492
260078638.720000,-47.8110008
260425780.992000,-47.1370354
260772923.264000,-46.4604797
261120065.536000,-45.8376083
261467207.808000,-45.113205
261814350.080000,-44.6184578
262161492.352000,-44.0804596
262508634.624000,-43.5524826
262855776.896000,-43.0084496
263202919.168000,-42.6200523
263550061.440000,-42.2731667
263897203.712000,-41.845726
264244345.984000,-41.5323677
264591488.256000,-41.2329407
264938630.528000,-41.0095558
265285772.800000,-40.7774811
265632915.072000,-40.6008949
265980057.344000,-40.4927368
266327199.616000,-40.3769455
266674341.888000,-40.2697678
267021484.160000,-40.2123871
267368626.432000,-40.2215881
267715768.704000,-40.1589165
268062910.976000,-40.1193542
268410053.248000,-40.1427155
268757195.520000,-40.1754951
269104337.792000,-40.1604347
269451480.064000,-40.1888618
269798622.336000,-40.2545662
270145764.608000,-40.3278465
270492906.880000,-40.3169518
270840049.152000,-40.4253349
271187191.424000,-40.537571
271534333.696000,-40.5919609
271881475.968000,-40.6228905
272228618.240000,-40.7615471
272575760.512000,-40.9154549
272922902.784000,-40.9793243
