Frequency_Hz,Amplitude
39643296.000000,-74.4859848
39990438.272000,-74.7028275
40337580.544000,-74.7479324
40684722.816000,-74.3203812
41031865.088000,-73.8088837
41379007.360000,-73.8072433
41726149.632000,-75.3087769
42073291.904000,-73.8786545
42420434.176000,-73.2990799
42767576.448000,-72.5095978
43114718.720000,-71.8220978
43461860.992000,-71.2696991
43809003.264000,-70.6496506
44156145.536000,-69.4923935
44503287.808000,-68.2981644
44850430.080000,-66.7616653
45197572.352000,-65.0211258
45544714.624000,-63.3519135
45891856.896000,-61.7706223
46238999.168000,-59.4009476
46586141.440000,-56.4271927
46933283.712000,-53.0693436
47280425.984000,-51.4521103
47627568.256000,-52.1833305
47974710.528000,-55.2270279
48321852.800000,-58.3275223
48668995.072000,-60.6509933
49016137.344000,-62.2324562
49363279.616000,-64.0298538
49710421.888000,-65.3460617
50057564.160000,-66.2398605
50404706.432000,-67.8257217
50751848.704000,-68.1190872
51098990.976000,-68.8540039
51446133.248000,-69.2178497
51793275.520000,-70.587326
52140417.792000,-69.7189713
52487560.064000,-70.153389
52834702.336000,-71.2646103
53181844.608000,-70.6196518
53528986.880000,-71.0530014
53876129.152000,-70.2009354
54223271.424000,-70.5559082
54570413.696000,-70.2239456
54917555.968000,-71.1056747
55264698.240000,-71.5739594
55611840.512000,-70.5866776
55958982.784000,-70.6453629
56306125.056000,-70.7462921
56653267.328000,-70.877449
57000409.600000,-70.3633423
57347551.872000,-70.8519897
57694694.144000,-70.3733292
58041836.416000,-70.2754745
58388978.688000,-69.9295273
58736120.960000,-69.9480209
59083263.232000,-70.0214615
59430405.504000,-69.1555634
59777547.776000,-69.7354889
60124690.048000,-68.9378815
60471832.320000,-68.6738052
60818974.592000,-68.8877716
61166116.864000,-69.5409851
61513259.136000,-68.8720093
61860401.408000,-68.8478851
62207543.680000,-68.339592
62554685.952000,-68.2238007
62901828.224000,-68.0413666
63248970.496000,-67.7703476
63596112.768000,-67.2057114
63943255.040000,-67.6220551
64290397.312000,-67.0405807
64637539.584000,-66.502594
64984681.856000,-65.8665543
65331824.128000,-66.0779266
65678966.400000,-65.1278534
66026108.672000,-64.9599915
66373250.944000,-64.1209793
66720393.216000,-63.4139671
67067535.488000,-63.0328331
67414677.760000,-61.8065491
67761820.032000,-60.7997169
68108962.304000,-59.7034607
68456104.576000,-59.9995804
68803246.848000,-61.2150803
69150389.120000,-64.4771118
69497531.392000,-67.8316574
69844673.664000,-70.8641663
70191815.936000,-72.9400177
70538958.208000,-73.8617554
70886100.480000,-74.6029358
71233242.752000,-74.8012161
71580385.024000,-74.1424637
71927527.296000,-72.7746277
72274669.568000,-72.2938156
72621811.840000,-71.6111069
72968954.112000,-71.5182571
73316096.384000,-71.7992401
73663238.656000,-70.8123932
74010380.928000,-69.733284
74357523.200000,-70.5796204
74704665.472000,-69.4068222
75051807.744000,-69.6310349
75398950.016000,-69.6753082
75746092.288000,-68.8080368
76093234.560000,-69.5103378
76440376.832000,-68.5915833
76787519.104000,-68.6637802
77134661.376000,-68.5841827
77481803.648000,-68.6198502
77828945.920000,-69.1390991
78176088.192000,-68.7341156
78523230.464000,-68.365509
78870372.736000,-68.8936005
79217515.008000,-69.1346817
79564657.280000,-69.0728836
79911799.552000,-69.0688324
80258941.824000,-68.9596024
80606084.096000,-69.611824
80953226.368000,-69.7055817
81300368.640000,-68.9707413
81647510.912000,-68.9199371
81994653.184000,-69.2340393
82341795.456000,-68.8047485
82688937.728000,-69.0660553
83036080.000000,-69.1861725
83383222.272000,-69.2396469
83730364.544000,-68.8871384
84077506.816000,-68.9601517
84424649.088000,-68.1737823
84771791.360000,-68.1714935
85118933.632000,-68.0131149
85466075.904000,-68.0247192
85813218.176000,-67.3603439
86160360.448000,-66.9602585
86507502.720000,-66.4175797
86854644.992000,-65.8021164
87201787.264000,-65.7341995
87548929.536000,-65.1985855
87896071.808000,-64.842926
88243214.080000,-63.979084
88590356.352000,-63.6824684
88937498.624000,-63.639679
89284640.896000,-63.2864532
89631783.168000,-62.6095963
89978925.440000,-62.9819374
90326067.712000,-63.3417778
90673209.984000,-63.1500473
91020352.256000,-63.7188873
91367494.528000,-63.9024696
91714636.800000,-63.9756889
92061779.072000,-64.3007736
92408921.344000,-64.9619675
92756063.616000,-64.7772217
93103205.888000,-65.0757904
93450348.160000,-65.1781311
93797490.432000,-65.0917053
94144632.704000,-65.4632874
94491774.976000,-65.9464188
94838917.248000,-66.392601
95186059.520000,-67.2510605
95533201.792000,-67.3608322
95880344.064000,-67.8537292
96227486.336000,-68.7076187
96574628.608000,-68.9275208
96921770.880000,-69.0285416
97268913.152000,-68.8447342
97616055.424000,-68.9072571
97963197.696000,-68.9123917
98310339.968000,-68.8343353
98657482.240000,-68.1621475
99004624.512000,-68.5982971
99351766.784000,-68.5739136
99698909.056000,-68.2351379
100046051.328000,-67.923172
100393193.600000,-67.3614349
100740335.872000,-67.565506
101087478.144000,-67.3339386
101434620.416000,-66.6676331
101781762.688000,-66.873024
102128904.960000,-66.2056198
102476047.232000,-65.9439545
102823189.504000,-65.6951065
103170331.776000,-65.1736603
103517474.048000,-64.658905
103864616.320000,-64.429306
104211758.592000,-63.0151138
104558900.864000,-62.2105865
104906043.136000,-61.1296844
105253185.408000,-59.8245354
105600327.680000,-58.5492249
105947469.952000,-57.5729485
106294612.224000,-56.3324013
106641754.496000,-55.1472206
106988896.768000,-53.9264297
107336039.040000,-53.0673561
107683181.312000,-52.2081604
108030323.584000,-51.5377502
108377465.856000,-51.2648506
108724608.128000,-51.2208786
109071750.400000,-51.1891937
109418892.672000,-51.312252
109766034.944000,-51.5145035
110113177.216000,-51.9196205
110460319.488000,-52.205616
110807461.760000,-52.3449097
111154604.032000,-52.6857681
111501746.304000,-52.907238
111848888.576000,-53.085289
112196030.848000,-53.3758812
112543173.120000,-53.6061211
112890315.392000,-53.825386
113237457.664000,-53.9480286
113584599.936000,-54.1580315
113931742.208000,-54.3141823
114278884.480000,-54.465641
114626026.752000,-54.7841339
114973169.024000,-54.8386688
115320311.296000,-54.9225922
115667453.568000,-55.3868904
116014595.840000,-55.5458908
116361738.112000,-55.4614258
116708880.384000,-55.5945053
117056022.656000,-55.9550056
117403164.928000,-56.0790367
117750307.200000,-56.290657
118097449.472000,-56.2172279
118444591.744000,-56.3457565
118791734.016000,-56.5255852
119138876.288000,-56.6703339
119486018.560000,-56.8629074
119833160.832000,-57.1349945
120180303.104000,-57.3768272
120527445.376000,-57.362793
120874587.648000,-57.7772179
121221729.920000,-58.1877632
121568872.192000,-58.6060143
121916014.464000,-58.7841835
122263156.736000,-59.274189
122610299.008000,-59.8834038
122957441.280000,-60.4236031
123304583.552000,-60.8647537
123651725.824000,-61.0115433
123998868.096000,-61.9949303
124346010.368000,-62.0526428
124693152.640000,-61.5354996
125040294.912000,-60.0114899
125387437.184000,-62.2497559
125734579.456000,-62.390377
126081721.728000,-62.2562447
126428864.000000,-62.3732185
126776006.272000,-62.4681282
127123148.544000,-62.5566025
127470290.816000,-62.3334007
127817433.088000,-62.2694511
128164575.360000,-61.986618
128511717.632000,-61.7008514
128858859.904000,-61.4753571
129206002.176000,-61.6027565
129553144.448000,-61.1380844
129900286.720000,-61.2882309
130247428.992000,-60.8252182
130594571.264000,-60.6612015
130941713.536000,-60.586628
131288855.808000,-60.7436867
131635998.080000,-60.5053101
131983140.352000,-60.7899857
132330282.624000,-61.2080688
132677424.896000,-61.6925621
133024567.168000,-61.9702988
133371709.440000,-62.7457123
133718851.712000,-63.0928497
134065993.984000,-63.580349
134413136.256000,-63.9333229
134760278.528000,-64.3702011
135107420.800000,-64.9579239
135454563.072000,-65.2026443
135801705.344000,-65.422081
136148847.616000,-66.1818619
136495989.888000,-66.5641251
136843132.160000,-66.3263016
137190274.432000,-67.5369339
137537416.704000,-66.5914536
137884558.976000,-66.8764954
138231701.248000,-66.9344788
138578843.520000,-66.9210587
138925985.792000,-66.8372726
139273128.064000,-67.3555298
139620270.336000,-66.5013351
139967412.608000,-66.8252487
140314554.880000,-66.1554108
140661697.152000,-66.1796341
141008839.424000,-65.8066254
141355981.696000,-66.2900085
141703123.968000,-65.0992889
142050266.240000,-65.3309326
142397408.512000,-64.9359818
142744550.784000,-64.5941772
143091693.056000,-64.7294769
143438835.328000,-64.8972931
143785977.600000,-64.471283
144133119.872000,-64.44207
144480262.144000,-64.104805
144827404.416000,-64.497673
145174546.688000,-64.8524475
145521688.960000,-64.6426163
145868831.232000,-65.2061462
146215973.504000,-65.17173
146563115.776000,-65.7140045
146910258.048000,-66.0135422
147257400.320000,-66.2243729
147604542.592000,-67.0849915
147951684.864000,-66.792572
148298827.136000,-67.6213989
148645969.408000,-67.7063599
148993111.680000,-68.4938736
149340253.952000,-68.2203217
149687396.224000,-68.3735275
150034538.496000,-67.2018509
150381680.768000,-69.0166321
150728823.040000,-70.3806
151075965.312000,-71.3819427
151423107.584000,-71.2366104
151770249.856000,-71.7071228
152117392.128000,-71.4963913
152464534.400000,-72.6662674
152811676.672000,-73.3362961
153158818.944000,-73.4615936
153505961.216000,-73.2147369
153853103.488000,-73.4622955
154200245.760000,-73.9327469
154547388.032000,-73.9246521
154894530.304000,-74.3237305
155241672.576000,-74.6445389
155588814.848000,-74.0945282
155935957.120000,-74.0369568
156283099.392000,-73.9005966
156630241.664000,-74.5228729
156977383.936000,-73.5538864
157324526.208000,-73.1541138
157671668.480000,-72.823761
158018810.752000,-73.7622375
158365953.024000,-73.0223312
158713095.296000,-73.4490738
159060237.568000,-71.9313889
159407379.840000,-71.396843
159754522.112000,-71.7038345
160101664.384000,-71.0995255
160448806.656000,-70.8980179
160795948.928000,-69.6689072
161143091.200000,-70.2706757
161490233.472000,-70.3683929
161837375.744000,-70.2891464
162184518.016000,-69.7846069
162531660.288000,-69.4684906
162878802.560000,-69.125351
163225944.832000,-68.2922592
163573087.104000,-68.5601807
163920229.376000,-67.8821411
164267371.648000,-68.0890884
164614513.920000,-67.5108795
164961656.192000,-67.7029648
165308798.464000,-66.9821014
165655940.736000,-67.0290756
166003083.008000,-66.9006424
166350225.280000,-66.5621414
166697367.552000,-66.6354752
167044509.824000,-66.1032104
167391652.096000,-65.84375
167738794.368000,-65.8456345
168085936.640000,-65.1118469
168433078.912000,-64.8355255
168780221.184000,-64.4560852
169127363.456000,-64.9034576
169474505.728000,-64.224205
169821648.000000,-64.3297729
170168790.272000,-63.9609718
170515932.544000,-63.3571396
170863074.816000,-62.9247818
171210217.088000,-63.5447235
171557359.360000,-62.2905426
171904501.632000,-61.9018364
172251643.904000,-61.8059845
172598786.176000,-61.3493195
172945928.448000,-61.2397804
173293070.720000,-60.8993187
173640212.992000,-60.3071175
173987355.264000,-60.0180435
174334497.536000,-59.7305641
174681639.808000,-59.1573067
175028782.080000,-59.024334
175375924.352000,-58.5592804
175723066.624000,-58.2445145
176070208.896000,-58.168766
176417351.168000,-57.8502312
176764493.440000,-57.5415192
177111635.712000,-57.3710403
177458777.984000,-57.2171669
177805920.256000,-57.0029755
178153062.528000,-56.8497925
178500204.800000,-56.7224159
178847347.072000,-56.6060715
179194489.344000,-56.4959259
179541631.616000,-56.3405724
179888773.888000,-56.316967
180235916.160000,-56.2550621
180583058.432000,-56.2544212
180930200.704000,-56.2192612
181277342.976000,-56.226963
181624485.248000,-56.1078644
181971627.520000,-56.1328812
182318769.792000,-56.4202232
182665912.064000,-56.2186852
183013054.336000,-56.3283882
183360196.608000,-56.4577675
183707338.880000,-56.4348373
184054481.152000,-56.5651436
184401623.424000,-56.6497917
184748765.696000,-56.6739883
185095907.968000,-56.8940315
185443050.240000,-56.971077
185790192.512000,-57.085762
186137334.784000,-57.3418655
186484477.056000,-57.6915627
186831619.328000,-57.6763458
187178761.600000,-58.073204
187525903.872000,-58.2854385
187873046.144000,-58.6088715
188220188.416000,-58.8333015
188567330.688000,-59.0297394
188914472.960000,-59.4562416
189261615.232000,-59.642128
189608757.504000,-59.7912598
189955899.776000,-60.1048393
190303042.048000,-60.297596
190650184.320000,-60.1358452
190997326.592000,-60.2561378
191344468.864000,-60.1470528
191691611.136000,-59.8561172
192038753.408000,-59.699604
192385895.680000,-59.503418
192733037.952000,-58.9787292
193080180.224000,-58.3488007
193427322.496000,-57.849453
193774464.768000,-57.2680931
194121607.040000,-56.45084
194468749.312000,-55.8960915
194815891.584000,-55.4670372
195163033.856000,-54.6148987
195510176.128000,-53.8246536
195857318.400000,-53.118969
196204460.672000,-52.3086395
196551602.944000,-51.4022636
196898745.216000,-50.7005272
197245887.488000,-49.756279
197593029.760000,-48.9739914
197940172.032000,-48.1597137
198287314.304000,-47.4124222
198634456.576000,-46.7525597
198981598.848000,-46.1076431
199328741.120000,-45.6294289
199675883.392000,-45.2390594
200023025.664000,-45.0316734
200370167.936000,-44.8223953
200717310.208000,-44.8019524
201064452.480000,-44.8037262
201411594.752000,-44.9420586
201758737.024000,-45.0083656
202105879.296000,-45.2119293
202453021.568000,-45.3994789
202800163.840000,-45.5420685
203147306.112000,-45.7231102
203494448.384000,-45.895649
203841590.656000,-46.0518456
204188732.928000,-46.2229042
204535875.200000,-46.3218956
204883017.472000,-46.5125732
205230159.744000,-46.6001167
205577302.016000,-46.7074471
205924444.288000,-46.8235283
206271586.560000,-46.9851532
206618728.832000,-47.090992
206965871.104000,-47.2363434
207313013.376000,-47.3078728
207660155.648000,-47.4565315
208007297.920000,-47.5431824
208354440.192000,-47.7180595
208701582.464000,-47.8829651
209048724.736000,-47.9837036
209395867.008000,-48.1794968
209743009.280000,-48.326416
210090151.552000,-48.4956932
210437293.824000,-48.6436424
210784436.096000,-48.872467
211131578.368000,-49.1027946
211478720.640000,-49.3325615
211825862.912000,-49.48563
212173005.184000,-49.6861839
212520147.456000,-49.9590988
212867289.728000,-50.2082329
213214432.000000,-50.3672867
213561574.272000,-50.5962105
213908716.544000,-50.9649658
214255858.816000,-51.161171
214603001.088000,-51.3291779
214950143.360000,-51.7252159
215297285.632000,-52.0032845
215644427.904000,-52.274025
215991570.176000,-52.6201286
216338712.448000,-52.9430656
216685854.720000,-53.2029648
217032996.992000,-53.5430412
217380139.264000,-54.0618362
217727281.536000,-54.519558
218074423.808000,-54.8208694
218421566.080000,-55.5124702
218768708.352000,-56.1045341
219115850.624000,-56.4334869
219462992.896000,-57.1549225
219810135.168000,-57.7454185
220157277.440000,-58.443119
220504419.712000,-59.1332169
220851561.984000,-59.1958961
221198704.256000,-59.0812531
221545846.528000,-58.5230904
221892988.800000,-57.7261124
222240131.072000,-56.6883163
222587273.344000,-55.5601234
222934415.616000,-54.2551117
223281557.888000,-53.1168976
223628700.160000,-52.1490021
223975842.432000,-51.2063255
224322984.704000,-50.2165985
224670126.976000,-49.4812622
225017269.248000,-48.6536865
225364411.520000,-47.958622
225711553.792000,-47.3329124
226058696.064000,-46.7753754
226405838.336000,-46.3038177
226752980.608000,-45.8200569
227100122.880000,-45.3548889
227447265.152000,-44.9412041
227794407.424000,-44.4626808
228141549.696000,-44.1694374
228488691.968000,-43.7980003
228835834.240000,-43.4988594
229182976.512000,-43.2114983
229530118.784000,-42.9074898
229877261.056000,-42.6386147
230224403.328000,-42.3280296
230571545.600000,-42.0554504
230918687.872000,-41.8708534
231265830.144000,-41.6550865
231612972.416000,-41.3559723
231960114.688000,-41.1834755
232307256.960000,-41.0214882
232654399.232000,-40.8267021
233001541.504000,-40.6489449
233348683.776000,-40.5148048
233695826.048000,-40.4047203
234042968.320000,-40.2560997
234390110.592000,-40.1695442
234737252.864000,-40.0849571
235084395.136000,-40.0370293
235431537.408000,-39.9488106
235778679.680000,-39.9158401
236125821.952000,-39.9071007
236472964.224000,-39.9124718
236820106.496000,-39.90028
237167248.768000,-39.9569931
237514391.040000,-40.0469055
237861533.312000,-40.0655823
238208675.584000,-40.1556206
238555817.856000,-40.2973213
238902960.128000,-40.3977585
239250102.400000,-40.5027542
239597244.672000,-40.6841393
239944386.944000,-40.8868408
240291529.216000,-41.0309372
240638671.488000,-41.2495804
240985813.760000,-41.489872
241332956.032000,-41.7576294
241680098.304000,-41.983963
242027240.576000,-42.2349014
242374382.848000,-42.5587654
242721525.120000,-42.8538399
243068667.392000,-43.1797676
243415809.664000,-43.5627937
243762951.936000,-43.9560776
244110094.208000,-44.3670959
244457236.480000,-44.7089767
244804378.752000,-45.1724052
245151521.024000,-45.6671066
245498663.296000,-46.123394
245845805.568000,-46.5731316
246192947.840000,-47.1315002
246540090.112000,-47.6320419
246887232.384000,-48.1462631
247234374.656000,-48.735405
247581516.928000,-49.3628235
247928659.200000,-49.8966751
248275801.472000,-50.5097771
248622943.744000,-51.074501
248970086.016000,-51.7314034
249317228.288000,-52.3330498
249664370.560000,-52.9223061
250011512.832000,-53.5398102
250358655.104000,-54.248436
250705797.376000,-55.0115089
251052939.648000,-55.8225021
251400081.920000,-56.680191
251747224.192000,-57.2596054
252094366.464000,-58.0029602
252441508.736000,-58.7380943
252788651.008000,-59.387989
253135793.280000,-60.3372688
253482935.552000,-61.2345238
253830077.824000,-61.5455933
254177220.096000,-61.6837044
254524362.368000,-61.5300484
254871504.640000,-60.9043922
255218646.912000,-60.4322433
255565789.184000,-59.6340828
255912931.456000,-58.5574265
256260073.728000,-57.6713333
256607216.000000,-56.5253487
256954358.272000,-55.4896545
257301500.544000,-54.5853691
257648642.816000,-53.6057892
257995785.088000,-52.7131462
258342927.360000,-51.7943459
258690069.632000,-50.9161263
259037211.904000,-50.088459
259384354.176000,-49.340992
259731496.448000,-48.6393433
260078638.720000,-47.8810272
260425780.992000,-47.1482239
260772923.264000,-46.4510078
261120065.536000,-45.8466225
261467207.808000,-45.2353516
261814350.080000,-44.6079178
262161492.352000,-44.0952988
262508634.624000,-43.5648232
262855776.896000,-43.045681
263202919.168000,-42.6237488
263550061.440000,-42.2475128
263897203.712000,-41.8579559
264244345.984000,-41.5208664
264591488.256000,-41.2253418
264938630.528000,-41.0182037
265285772.800000,-40.7789803
265632915.072000,-40.6098709
265980057.344000,-40.4904594
266327199.616000,-40.377224
266674341.888000,-40.255455
267021484.160000,-40.2237511
267368626.432000,-40.1935997
267715768.704000,-40.1420097
268062910.976000,-40.1027908
268410053.248000,-40.1434898
268757195.520000,-40.1729546
269104337.792000,-40.1289635
269451480.064000,-40.1848984
269798622.336000,-40.2497787
270145764.608000,-40.3194809
270492906.880000,-40.3180885
270840049.152000,-40.4065742
271187191.424000,-40.5420876
271534333.696000,-40.5759621
271881475.968000,-40.661541
272228618.240000,-40.760891
272575760.512000,-40.906292
272922902.784000,-40.9587059
273270045.056000,-41.1261063
