Frequency_Hz,Amplitude
39643296.000000,-74.2264633
39990438.272000,-74.8505707
40337580.544000,-74.4690323
40684722.816000,-74.1016998
41031865.088000,-74.6471329
41379007.360000,-73.9419403
41726149.632000,-73.7473297
42073291.904000,-73.3050385
42420434.176000,-73.1123962
42767576.448000,-72.408287
43114718.720000,-71.9078674
43461860.992000,-71.0226669
43809003.264000,-70.3865814
44156145.536000,-68.8302612
44503287.808000,-68.0312042
44850430.080000,-66.4424896
45197572.352000,-64.9081497
45544714.624000,-63.4130783
45891856.896000,-61.5324097
46238999.168000,-59.062706
46586141.440000,-56.332737
46933283.712000,-53.2677765
47280425.984000,-51.3872414
47627568.256000,-52.2144966
47974710.528000,-55.0942688
48321852.800000,-58.090744
48668995.072000,-60.6830101
49016137.344000,-62.3518257
49363279.616000,-64.1449356
49710421.888000,-65.5240402
50057564.160000,-66.5953522
50404706.432000,-68.1618652
50751848.704000,-68.2277374
51098990.976000,-68.8731918
51446133.248000,-69.73909
51793275.520000,-70.0393829
52140417.792000,-69.7576599
52487560.064000,-70.3627625
52834702.336000,-70.8358688
53181844.608000,-71.6910248
53528986.880000,-70.6558075
53876129.152000,-71.3481064
54223271.424000,-70.7389984
54570413.696000,-71.1740265
54917555.968000,-71.2730865
55264698.240000,-70.995491
55611840.512000,-71.1084213
55958982.784000,-70.4601746
56306125.056000,-70.2683411
56653267.328000,-70.5785599
57000409.600000,-70.4992142
57347551.872000,-70.349411
57694694.144000,-70.1852951
58041836.416000,-70.2574387
58388978.688000,-70.4632568
58736120.960000,-70.011879
59083263.232000,-69.6124496
59430405.504000,-69.9692841
59777547.776000,-69.6767654
60124690.048000,-69.3028717
60471832.320000,-69.0965881
60818974.592000,-69.2891541
61166116.864000,-68.7992172
61513259.136000,-68.8156128
61860401.408000,-68.1501694
62207543.680000,-68.3608322
62554685.952000,-68.2013245
62901828.224000,-67.6153793
63248970.496000,-67.6983643
63596112.768000,-67.8555679
63943255.040000,-67.1292648
64290397.312000,-67.1734238
64637539.584000,-66.5826416
64984681.856000,-66.4403915
65331824.128000,-65.8131332
65678966.400000,-65.595192
66026108.672000,-64.7968674
66373250.944000,-64.3769913
66720393.216000,-63.658123
67067535.488000,-62.6903191
67414677.760000,-61.9019585
67761820.032000,-60.603363
68108962.304000,-59.7954903
68456104.576000,-59.7288055
68803246.848000,-61.2248001
69150389.120000,-64.2062531
69497531.392000,-67.9595566
69844673.664000,-71.0007477
70191815.936000,-73.7439423
70538958.208000,-75.0961456
70886100.480000,-74.7917175
71233242.752000,-74.6587448
71580385.024000,-73.3702545
71927527.296000,-72.4837341
72274669.568000,-72.5849609
72621811.840000,-73.0841446
72968954.112000,-71.7861633
73316096.384000,-71.0075684
73663238.656000,-70.5539017
74010380.928000,-70.1147156
74357523.200000,-70.1044235
74704665.472000,-69.8236389
75051807.744000,-70.0180817
75398950.016000,-69.9347992
75746092.288000,-69.9206924
76093234.560000,-69.0668945
76440376.832000,-69.3069077
76787519.104000,-69.2699585
77134661.376000,-68.8251877
77481803.648000,-68.5226364
77828945.920000,-69.3871002
78176088.192000,-68.8834
78523230.464000,-68.985527
78870372.736000,-68.6910324
79217515.008000,-69.4147491
79564657.280000,-69.0832596
79911799.552000,-69.3290405
80258941.824000,-69.5436401
80606084.096000,-68.7307281
80953226.368000,-68.9406204
81300368.640000,-68.8674393
81647510.912000,-69.1103821
81994653.184000,-69.1727905
82341795.456000,-69.1930923
82688937.728000,-69.2339935
83036080.000000,-68.6882324
83383222.272000,-68.3429184
83730364.544000,-69.2301636
84077506.816000,-68.6379776
84424649.088000,-68.568718
84771791.360000,-67.7881088
85118933.632000,-67.475502
85466075.904000,-67.2191925
85813218.176000,-67.3509903
86160360.448000,-66.8578949
86507502.720000,-66.449295
86854644.992000,-65.9283829
87201787.264000,-65.8750305
87548929.536000,-65.930748
87896071.808000,-64.7575607
88243214.080000,-64.2781982
88590356.352000,-63.7247353
88937498.624000,-63.3732491
89284640.896000,-63.3295746
89631783.168000,-62.8103638
89978925.440000,-62.9216576
90326067.712000,-62.9560051
90673209.984000,-63.3523178
91020352.256000,-63.5675735
91367494.528000,-63.887413
91714636.800000,-64.073082
92061779.072000,-64.436882
92408921.344000,-64.6103821
92756063.616000,-64.468483
93103205.888000,-64.9458237
93450348.160000,-64.8445358
93797490.432000,-65.4892426
94144632.704000,-65.4577713
94491774.976000,-66.1265411
94838917.248000,-66.5934753
95186059.520000,-67.3241882
95533201.792000,-67.9275055
95880344.064000,-67.7170258
96227486.336000,-68.7066803
96574628.608000,-68.562851
96921770.880000,-69.4421616
97268913.152000,-68.8618317
97616055.424000,-69.4839554
97963197.696000,-68.7423553
98310339.968000,-68.4473114
98657482.240000,-68.4627609
99004624.512000,-68.279747
99351766.784000,-68.2555542
99698909.056000,-68.0402374
100046051.328000,-67.9156952
100393193.600000,-68.5476074
100740335.872000,-67.8013992
101087478.144000,-67.5771408
101434620.416000,-66.731987
101781762.688000,-67.0857773
102128904.960000,-66.5982895
102476047.232000,-65.9744339
102823189.504000,-65.2530594
103170331.776000,-64.9169159
103517474.048000,-64.430336
103864616.320000,-63.7371521
104211758.592000,-62.9347916
104558900.864000,-62.0051003
104906043.136000,-61.1725922
105253185.408000,-59.7247734
105600327.680000,-58.906189
105947469.952000,-57.7582512
106294612.224000,-56.489048
106641754.496000,-55.183651
106988896.768000,-54.0606461
107336039.040000,-53.0371742
107683181.312000,-52.2025528
108030323.584000,-51.4600449
108377465.856000,-51.2388649
108724608.128000,-51.1707191
109071750.400000,-51.0986748
109418892.672000,-51.3333092
109766034.944000,-51.5625687
110113177.216000,-51.9109688
110460319.488000,-52.1581573
110807461.760000,-52.4280624
111154604.032000,-52.608326
111501746.304000,-52.9749718
111848888.576000,-53.1205292
112196030.848000,-53.4052658
112543173.120000,-53.7209396
112890315.392000,-53.7238121
113237457.664000,-54.0298386
113584599.936000,-54.1015549
113931742.208000,-54.3677254
114278884.480000,-54.4568596
114626026.752000,-54.682373
114973169.024000,-54.9714699
115320311.296000,-55.0814133
115667453.568000,-55.2938004
116014595.840000,-55.3910332
116361738.112000,-55.6330986
116708880.384000,-55.7382698
117056022.656000,-55.8029785
117403164.928000,-56.0528793
117750307.200000,-56.2304573
118097449.472000,-56.2422867
118444591.744000,-56.3264313
118791734.016000,-56.5150795
119138876.288000,-56.8188019
119486018.560000,-56.820118
119833160.832000,-56.9543877
120180303.104000,-57.1541519
120527445.376000,-57.5352707
120874587.648000,-57.8610458
121221729.920000,-58.0180969
121568872.192000,-58.1703339
121916014.464000,-58.8853951
122263156.736000,-59.3352432
122610299.008000,-60.0694923
122957441.280000,-60.3732338
123304583.552000,-60.8170738
123651725.824000,-61.2136497
123998868.096000,-61.6941147
124346010.368000,-61.9316292
124693152.640000,-61.4714813
125040294.912000,-60.7996178
125387437.184000,-62.1876373
125734579.456000,-62.5727654
126081721.728000,-62.5099754
126428864.000000,-62.6470299
126776006.272000,-62.1246185
127123148.544000,-62.1645203
127470290.816000,-62.1693153
127817433.088000,-62.0871887
128164575.360000,-61.9150238
128511717.632000,-61.8585854
128858859.904000,-61.4005318
129206002.176000,-61.1984596
129553144.448000,-61.2186356
129900286.720000,-61.2035141
130247428.992000,-60.7843285
130594571.264000,-60.6290092
130941713.536000,-60.5924377
131288855.808000,-60.6317329
131635998.080000,-60.6802406
131983140.352000,-60.997261
132330282.624000,-61.0360107
132677424.896000,-61.6903191
133024567.168000,-61.8340912
133371709.440000,-62.4640312
133718851.712000,-63.1094933
134065993.984000,-63.528698
134413136.256000,-64.0941162
134760278.528000,-64.7826233
135107420.800000,-65.4049606
135454563.072000,-65.4966354
135801705.344000,-65.5738068
136148847.616000,-66.8090439
136495989.888000,-66.7044449
136843132.160000,-66.8710403
137190274.432000,-67.2406693
137537416.704000,-66.8206787
137884558.976000,-66.7987518
138231701.248000,-66.639534
138578843.520000,-66.5621262
138925985.792000,-67.0074844
139273128.064000,-66.4609833
139620270.336000,-67.0355377
139967412.608000,-66.5790329
140314554.880000,-66.1364594
140661697.152000,-65.7243347
141008839.424000,-65.6472321
141355981.696000,-65.8938599
141703123.968000,-65.3260574
142050266.240000,-65.0949554
142397408.512000,-64.5918579
142744550.784000,-64.845253
143091693.056000,-64.8353195
143438835.328000,-64.231987
143785977.600000,-64.4573822
144133119.872000,-64.6237106
144480262.144000,-64.8288422
144827404.416000,-64.5703964
145174546.688000,-64.8575134
145521688.960000,-64.8939819
145868831.232000,-65.3448792
146215973.504000,-65.2793045
146563115.776000,-65.7042465
146910258.048000,-65.7337112
147257400.320000,-66.2216949
147604542.592000,-66.838623
147951684.864000,-67.2451019
148298827.136000,-67.3570251
148645969.408000,-67.7297211
148993111.680000,-68.2303925
149340253.952000,-68.1673737
149687396.224000,-68.2785263
150034538.496000,-66.9250946
150381680.768000,-69.0798645
150728823.040000,-69.7223587
151075965.312000,-70.8823624
151423107.584000,-70.4363327
151770249.856000,-71.4103699
152117392.128000,-72.7084503
152464534.400000,-72.3476715
152811676.672000,-73.0608826
153158818.944000,-72.6560211
153505961.216000,-73.4211044
153853103.488000,-73.6028214
154200245.760000,-73.9961929
154547388.032000,-74.4330063
154894530.304000,-74.6337967
155241672.576000,-73.847496
155588814.848000,-73.951561
155935957.120000,-74.1956863
156283099.392000,-73.8248749
156630241.664000,-74.3118057
156977383.936000,-73.5922241
157324526.208000,-73.3172226
157671668.480000,-74.1990128
158018810.752000,-73.3082275
158365953.024000,-72.4621353
158713095.296000,-72.7419662
159060237.568000,-71.9576416
159407379.840000,-71.1109467
159754522.112000,-70.9769974
160101664.384000,-70.8378372
160448806.656000,-70.8160782
160795948.928000,-70.651329
161143091.200000,-70.3366928
161490233.472000,-70.0779037
161837375.744000,-69.7554779
162184518.016000,-69.1342239
162531660.288000,-69.4485855
162878802.560000,-68.7867889
163225944.832000,-68.1990356
163573087.104000,-68.3306656
163920229.376000,-67.7604218
164267371.648000,-67.8420563
164614513.920000,-67.7168045
164961656.192000,-68.4847488
165308798.464000,-67.0974121
165655940.736000,-67.0212326
166003083.008000,-67.0770264
166350225.280000,-66.9065475
166697367.552000,-66.6472626
167044509.824000,-65.9705887
167391652.096000,-65.9835663
167738794.368000,-65.5116806
168085936.640000,-65.4132843
168433078.912000,-65.1805115
168780221.184000,-64.9070435
169127363.456000,-64.6519318
169474505.728000,-64.4580841
169821648.000000,-64.0823517
170168790.272000,-63.584095
170515932.544000,-63.4340439
170863074.816000,-62.9900894
171210217.088000,-62.6166878
171557359.360000,-62.8130493
171904501.632000,-62.1354904
172251643.904000,-61.9227943
172598786.176000,-61.6108513
172945928.448000,-60.9935455
173293070.720000,-60.894886
173640212.992000,-60.4065666
173987355.264000,-59.9171295
174334497.536000,-59.6226044
174681639.808000,-59.1455307
175028782.080000,-58.9950638
175375924.352000,-58.6293755
175723066.624000,-58.2597885
176070208.896000,-58.0491066
176417351.168000,-57.8516197
176764493.440000,-57.6042442
177111635.712000,-57.3824272
177458777.984000,-57.104229
177805920.256000,-57.0418167
178153062.528000,-56.9778748
178500204.800000,-56.5846558
178847347.072000,-56.6558342
179194489.344000,-56.4223061
179541631.616000,-56.3483086
179888773.888000,-56.4260292
180235916.160000,-56.2937698
180583058.432000,-56.3181953
180930200.704000,-56.3079529
181277342.976000,-56.2678108
181624485.248000,-56.2404785
181971627.520000,-56.2131653
182318769.792000,-56.365715
182665912.064000,-56.2115059
183013054.336000,-56.4285622
183360196.608000,-56.4942741
183707338.880000,-56.4570465
184054481.152000,-56.5731354
184401623.424000,-56.5881271
184748765.696000,-56.6947327
185095907.968000,-56.6925354
185443050.240000,-56.8993645
185790192.512000,-57.2425461
186137334.784000,-57.4323845
186484477.056000,-57.4508553
186831619.328000,-57.6051254
187178761.600000,-57.8865318
187525903.872000,-58.2593117
187873046.144000,-58.5357094
188220188.416000,-58.727356
188567330.688000,-59.1571503
188914472.960000,-59.4786873
189261615.232000,-59.5220032
189608757.504000,-59.8668404
189955899.776000,-59.9830513
190303042.048000,-60.1200294
190650184.320000,-60.3224602
190997326.592000,-60.0019989
191344468.864000,-60.1055374
191691611.136000,-59.9388657
192038753.408000,-59.6476173
192385895.680000,-59.3860779
192733037.952000,-58.6801224
193080180.224000,-58.3734283
193427322.496000,-57.928154
193774464.768000,-57.290184
194121607.040000,-56.6946945
194468749.312000,-56.0447121
194815891.584000,-55.4059525
195163033.856000,-54.7085915
195510176.128000,-53.9836273
195857318.400000,-53.1340981
196204460.672000,-52.22192
196551602.944000,-51.5045013
196898745.216000,-50.6036491
197245887.488000,-49.8462524
197593029.760000,-49.0151939
197940172.032000,-48.1687584
198287314.304000,-47.4144745
198634456.576000,-46.7331696
198981598.848000,-46.1172905
199328741.120000,-45.6312904
199675883.392000,-45.2830238
200023025.664000,-45.0201073
200370167.936000,-44.8437309
200717310.208000,-44.7509079
201064452.480000,-44.8138275
201411594.752000,-44.9250755
201758737.024000,-45.0236015
202105879.296000,-45.1829872
202453021.568000,-45.4184074
202800163.840000,-45.5163651
203147306.112000,-45.7123718
203494448.384000,-45.92313
203841590.656000,-46.0673409
204188732.928000,-46.1581688
204535875.200000,-46.3074837
204883017.472000,-46.4792252
205230159.744000,-46.5866013
205577302.016000,-46.6732292
205924444.288000,-46.8348389
206271586.560000,-46.9945908
206618728.832000,-47.0985756
206965871.104000,-47.1830063
207313013.376000,-47.3659821
207660155.648000,-47.4945908
208007297.920000,-47.5116577
208354440.192000,-47.6645164
208701582.464000,-47.8570442
209048724.736000,-48.031189
209395867.008000,-48.1485786
209743009.280000,-48.2920761
210090151.552000,-48.5496941
210437293.824000,-48.6319923
210784436.096000,-48.8462257
211131578.368000,-49.1224251
211478720.640000,-49.2483139
211825862.912000,-49.4691658
212173005.184000,-49.7328682
212520147.456000,-49.9953499
212867289.728000,-50.1301689
213214432.000000,-50.3972321
213561574.272000,-50.6253204
213908716.544000,-50.8771706
214255858.816000,-51.1363373
214603001.088000,-51.4199562
214950143.360000,-51.7169228
215297285.632000,-51.9278374
215644427.904000,-52.2519112
215991570.176000,-52.5705223
216338712.448000,-52.9773979
216685854.720000,-53.2449722
217032996.992000,-53.6669807
217380139.264000,-54.1290779
217727281.536000,-54.5655823
218074423.808000,-54.869606
218421566.080000,-55.4598312
218768708.352000,-55.9135208
219115850.624000,-56.5002785
219462992.896000,-57.3225517
219810135.168000,-57.8754539
220157277.440000,-58.4229698
220504419.712000,-59.0692139
220851561.984000,-59.0914421
221198704.256000,-59.2417603
221545846.528000,-58.6480408
221892988.800000,-57.6809845
222240131.072000,-56.5345459
222587273.344000,-55.5513954
222934415.616000,-54.3214493
223281557.888000,-53.1934853
223628700.160000,-52.1445274
223975842.432000,-51.1359367
224322984.704000,-50.3015404
224670126.976000,-49.415184
225017269.248000,-48.6610222
225364411.520000,-47.9838219
225711553.792000,-47.3532829
226058696.064000,-46.8141289
226405838.336000,-46.2493706
226752980.608000,-45.789566
227100122.880000,-45.3603516
227447265.152000,-44.9575996
227794407.424000,-44.4957504
228141549.696000,-44.129158
228488691.968000,-43.8029289
228835834.240000,-43.4797554
229182976.512000,-43.1767845
229530118.784000,-42.8748856
229877261.056000,-42.6314545
230224403.328000,-42.334301
230571545.600000,-42.0765839
230918687.872000,-41.846859
231265830.144000,-41.6215668
231612972.416000,-41.3928719
231960114.688000,-41.2320328
232307256.960000,-41.0167732
232654399.232000,-40.8195953
233001541.504000,-40.6564064
233348683.776000,-40.5300674
233695826.048000,-40.4059334
234042968.320000,-40.2353821
234390110.592000,-40.1521111
234737252.864000,-40.0921555
235084395.136000,-40.0171814
235431537.408000,-39.9049416
235778679.680000,-39.9044914
236125821.952000,-39.9171829
236472964.224000,-39.8996887
236820106.496000,-39.9104042
237167248.768000,-39.9625931
237514391.040000,-40.052002
237861533.312000,-40.0786819
238208675.584000,-40.1767502
238555817.856000,-40.2498932
238902960.128000,-40.4080849
239250102.400000,-40.4942398
239597244.672000,-40.6796379
239944386.944000,-40.8722725
240291529.216000,-41.0263863
240638671.488000,-41.2435112
240985813.760000,-41.4663544
241332956.032000,-41.7564316
241680098.304000,-41.9283104
242027240.576000,-42.2448082
242374382.848000,-42.54739
242721525.120000,-42.8810654
243068667.392000,-43.1571083
243415809.664000,-43.5591431
243762951.936000,-43.9533272
244110094.208000,-44.311615
244457236.480000,-44.6997871
244804378.752000,-45.152256
245151521.024000,-45.6574707
245498663.296000,-46.0646973
245845805.568000,-46.5948944
246192947.840000,-47.1295624
246540090.112000,-47.654953
246887232.384000,-48.1808815
247234374.656000,-48.7413292
247581516.928000,-49.3324165
247928659.200000,-49.9136658
248275801.472000,-50.4480972
248622943.744000,-51.1736717
248970086.016000,-51.8114548
249317228.288000,-52.3539925
249664370.560000,-52.996254
250011512.832000,-53.4813995
250358655.104000,-54.4059105
250705797.376000,-54.8554382
251052939.648000,-55.8755379
251400081.920000,-56.4171867
251747224.192000,-57.2000198
252094366.464000,-57.9683189
252441508.736000,-58.9139748
252788651.008000,-59.585537
253135793.280000,-60.208046
253482935.552000,-60.9437256
253830077.824000,-61.3645592
254177220.096000,-61.6229973
254524362.368000,-61.2771606
254871504.640000,-60.9440193
255218646.912000,-60.4064102
255565789.184000,-59.2924271
255912931.456000,-58.7784462
256260073.728000,-57.7143784
256607216.000000,-56.5030937
256954358.272000,-55.6312103
257301500.544000,-54.4505234
257648642.816000,-53.6737213
257995785.088000,-52.7684479
258342927.360000,-51.8097305
258690069.632000,-50.9106636
259037211.904000,-50.17033
259384354.176000,-49.4255905
259731496.448000,-48.6420555
260078638.720000,-47.8810616
260425780.992000,-47.1114922
260772923.264000,-46.4320221
261120065.536000,-45.8237991
261467207.808000,-45.2241287
261814350.080000,-44.684761
262161492.352000,-44.1000786
262508634.624000,-43.5672798
262855776.896000,-43.1022873
263202919.168000,-42.6338768
263550061.440000,-42.2335434
263897203.712000,-41.8724785
264244345.984000,-41.5256386
264591488.256000,-41.2288551
264938630.528000,-41.0271225
265285772.800000,-40.803318
265632915.072000,-40.6023254
265980057.344000,-40.4796028
266327199.616000,-40.3903885
266674341.888000,-40.2558861
267021484.160000,-40.2081871
267368626.432000,-40.199707
267715768.704000,-40.1566315
268062910.976000,-40.1228867
268410053.248000,-40.1188049
268757195.520000,-40.1823769
269104337.792000,-40.1581993
269451480.064000,-40.1861038
269798622.336000,-40.2761688
270145764.608000,-40.2936058
270492906.880000,-40.3263702
270840049.152000,-40.4429588
271187191.424000,-40.5310745
271534333.696000,-40.5932808
271881475.968000,-40.6303978
272228618.240000,-40.7663116
272575760.512000,-40.9071198
272922902.784000,-40.9677353
273270045.056000,-41.0689507
