Frequency_Hz,Amplitude
39643296.000000,-74.623558
39990438.272000,-74.9418716
40337580.544000,-75.204277
40684722.816000,-75.1669693
41031865.088000,-74.3443985
41379007.360000,-74.6163406
41726149.632000,-74.3715744
42073291.904000,-73.9528198
42420434.176000,-73.1058731
42767576.448000,-73.8021698
43114718.720000,-71.8572693
43461860.992000,-70.6210709
43809003.264000,-69.7111282
44156145.536000,-69.0145721
44503287.808000,-67.6817932
44850430.080000,-66.3958511
45197572.352000,-65.0919724
45544714.624000,-63.5813484
45891856.896000,-61.6201134
46238999.168000,-59.2850113
46586141.440000,-56.4435959
46933283.712000,-53.1833878
47280425.984000,-51.3409195
47627568.256000,-52.1430092
47974710.528000,-55.0389709
48321852.800000,-58.144455
48668995.072000,-60.2999725
49016137.344000,-62.518261
49363279.616000,-63.9684486
49710421.888000,-65.0886383
50057564.160000,-66.6666794
50404706.432000,-67.7080383
50751848.704000,-68.4142151
51098990.976000,-69.5032425
51446133.248000,-69.9501648
51793275.520000,-69.3117752
52140417.792000,-70.2459259
52487560.064000,-69.9281616
52834702.336000,-70.8115082
53181844.608000,-70.7046356
53528986.880000,-71.1357498
53876129.152000,-71.4273453
54223271.424000,-70.92836
54570413.696000,-70.8136215
54917555.968000,-71.4995651
55264698.240000,-70.4033661
55611840.512000,-70.3442001
55958982.784000,-70.7602463
56306125.056000,-70.7366257
56653267.328000,-70.9473801
57000409.600000,-70.4315796
57347551.872000,-70.4747696
57694694.144000,-70.0634537
58041836.416000,-69.6862946
58388978.688000,-70.1343536
58736120.960000,-69.8024139
59083263.232000,-69.6338196
59430405.504000,-69.3840256
59777547.776000,-69.3764114
60124690.048000,-69.4615326
60471832.320000,-69.5445557
60818974.592000,-69.6125946
61166116.864000,-68.9764709
61513259.136000,-68.7005463
61860401.408000,-68.7411346
62207543.680000,-68.5193176
62554685.952000,-68.0299683
62901828.224000,-67.5974884
63248970.496000,-67.6514511
63596112.768000,-67.8209381
63943255.040000,-67.2524109
64290397.312000,-66.7195435
64637539.584000,-66.9453278
64984681.856000,-66.2234802
65331824.128000,-65.9290771
65678966.400000,-65.4210052
66026108.672000,-65.1994247
66373250.944000,-64.2796707
66720393.216000,-63.4978943
67067535.488000,-62.8619881
67414677.760000,-61.7054558
67761820.032000,-60.7020073
68108962.304000,-60.0562057
68456104.576000,-59.9246483
68803246.848000,-60.9313698
69150389.120000,-64.4086533
69497531.392000,-67.299202
69844673.664000,-70.9488449
70191815.936000,-74.0979614
70538958.208000,-74.7538757
70886100.480000,-74.3545074
71233242.752000,-75.2118835
71580385.024000,-73.3577805
71927527.296000,-73.555954
72274669.568000,-72.309845
72621811.840000,-71.4460602
72968954.112000,-71.4201508
73316096.384000,-70.9100952
73663238.656000,-71.1521606
74010380.928000,-70.0608826
74357523.200000,-69.6773148
74704665.472000,-71.1797791
75051807.744000,-70.0148468
75398950.016000,-69.5682526
75746092.288000,-69.0855942
76093234.560000,-69.2409668
76440376.832000,-69.2116318
76787519.104000,-69.1999283
77134661.376000,-68.9949417
77481803.648000,-68.9182663
77828945.920000,-69.1176071
78176088.192000,-68.6390533
78523230.464000,-69.113205
78870372.736000,-69.0212555
79217515.008000,-68.9860229
79564657.280000,-68.7548065
79911799.552000,-68.8971558
80258941.824000,-69.6909714
80606084.096000,-69.7296982
80953226.368000,-69.4809494
81300368.640000,-70.0667572
81647510.912000,-69.6741409
81994653.184000,-69.3614731
82341795.456000,-69.8003616
82688937.728000,-68.763855
83036080.000000,-68.9031219
83383222.272000,-68.8368835
83730364.544000,-68.5369263
84077506.816000,-68.2158737
84424649.088000,-68.1242752
84771791.360000,-67.7316666
85118933.632000,-68.1940842
85466075.904000,-67.4593582
85813218.176000,-66.673378
86160360.448000,-66.671814
86507502.720000,-66.7050018
86854644.992000,-66.4184036
87201787.264000,-65.8727417
87548929.536000,-65.123024
87896071.808000,-64.7335663
88243214.080000,-64.3592148
88590356.352000,-63.8022919
88937498.624000,-63.663063
89284640.896000,-63.0373344
89631783.168000,-63.055088
89978925.440000,-63.1643143
90326067.712000,-63.0711288
90673209.984000,-63.6146736
91020352.256000,-63.3572693
91367494.528000,-64.0358276
91714636.800000,-64.1853867
92061779.072000,-64.141571
92408921.344000,-64.6564789
92756063.616000,-64.5645676
93103205.888000,-65.1994934
93450348.160000,-64.8819656
93797490.432000,-65.2005768
94144632.704000,-65.2221832
94491774.976000,-66.0026627
94838917.248000,-66.404129
95186059.520000,-67.1111984
95533201.792000,-67.8396454
95880344.064000,-68.1215515
96227486.336000,-68.1728973
96574628.608000,-69.050499
96921770.880000,-68.9578094
97268913.152000,-69.2244186
97616055.424000,-68.9814911
97963197.696000,-68.8947525
98310339.968000,-68.3578491
98657482.240000,-69.3450851
99004624.512000,-68.2052002
99351766.784000,-68.5544205
99698909.056000,-67.9666901
100046051.328000,-67.7505417
100393193.600000,-67.723671
100740335.872000,-67.4906006
101087478.144000,-67.5818329
101434620.416000,-67.3030396
101781762.688000,-67.5086975
102128904.960000,-66.4630966
102476047.232000,-66.1611557
102823189.504000,-65.3467102
103170331.776000,-65.2103271
103517474.048000,-64.6575394
103864616.320000,-64.0706558
104211758.592000,-62.7479095
104558900.864000,-62.1452904
104906043.136000,-61.0400581
105253185.408000,-59.9691544
105600327.680000,-58.8985672
105947469.952000,-57.5024261
106294612.224000,-56.2676964
106641754.496000,-55.2250595
106988896.768000,-53.8873749
107336039.040000,-53.0557938
107683181.312000,-52.1941109
108030323.584000,-51.6885681
108377465.856000,-51.2520485
108724608.128000,-51.0937271
109071750.400000,-51.1913338
109418892.672000,-51.3351364
109766034.944000,-51.5964584
110113177.216000,-51.9066048
110460319.488000,-52.1197243
110807461.760000,-52.3685379
111154604.032000,-52.6170387
111501746.304000,-52.9546013
111848888.576000,-53.115509
112196030.848000,-53.3653107
112543173.120000,-53.5696945
112890315.392000,-53.6953125
113237457.664000,-53.8865166
113584599.936000,-54.1849365
113931742.208000,-54.2918205
114278884.480000,-54.3834305
114626026.752000,-54.6565514
114973169.024000,-54.8658066
115320311.296000,-55.025898
115667453.568000,-55.225235
116014595.840000,-55.4862289
116361738.112000,-55.5525284
116708880.384000,-55.7043686
117056022.656000,-55.8730774
117403164.928000,-55.8881454
117750307.200000,-56.1077423
118097449.472000,-56.3340912
118444591.744000,-56.2631989
118791734.016000,-56.5994034
119138876.288000,-56.7043266
119486018.560000,-56.8475037
119833160.832000,-57.0880623
120180303.104000,-57.2046776
120527445.376000,-57.3504028
120874587.648000,-57.6314545
121221729.920000,-58.1151886
121568872.192000,-58.4220772
121916014.464000,-58.8481445
122263156.736000,-59.1956635
122610299.008000,-59.5991783
122957441.280000,-60.2517242
123304583.552000,-60.7619934
123651725.824000,-61.4995766
123998868.096000,-61.6255341
124346010.368000,-61.8551903
124693152.640000,-61.9653511
125040294.912000,-60.5235558
125387437.184000,-62.1197891
125734579.456000,-62.4965134
126081721.728000,-62.7332153
126428864.000000,-62.4191055
126776006.272000,-62.3334732
127123148.544000,-62.2084274
127470290.816000,-62.4867935
127817433.088000,-62.2093849
128164575.360000,-61.8230324
128511717.632000,-61.7384415
128858859.904000,-61.7172775
129206002.176000,-61.5489006
129553144.448000,-61.134407
129900286.720000,-61.4163399
130247428.992000,-60.9015274
130594571.264000,-60.7299919
130941713.536000,-60.7123566
131288855.808000,-60.5180664
131635998.080000,-60.6643867
131983140.352000,-60.8820381
132330282.624000,-61.0427856
132677424.896000,-61.4915543
133024567.168000,-62.1340752
133371709.440000,-62.3463326
133718851.712000,-62.6892242
134065993.984000,-63.6128082
134413136.256000,-64.0912247
134760278.528000,-64.3182144
135107420.800000,-65.1716461
135454563.072000,-64.8222961
135801705.344000,-65.4579163
136148847.616000,-65.9337997
136495989.888000,-66.5796432
136843132.160000,-66.4179459
137190274.432000,-66.891655
137537416.704000,-66.9862137
137884558.976000,-66.9892502
138231701.248000,-67.2289047
138578843.520000,-66.7456741
138925985.792000,-66.8594589
139273128.064000,-67.3351288
139620270.336000,-66.6778183
139967412.608000,-66.4755096
140314554.880000,-66.804718
140661697.152000,-66.4605942
141008839.424000,-65.6897812
141355981.696000,-65.5780563
141703123.968000,-65.1671219
142050266.240000,-65.005043
142397408.512000,-65.1997757
142744550.784000,-64.4056702
143091693.056000,-64.5568619
143438835.328000,-64.5447617
143785977.600000,-64.6548615
144133119.872000,-64.3279266
144480262.144000,-64.4020691
144827404.416000,-64.506485
145174546.688000,-64.8468552
145521688.960000,-65.4035797
145868831.232000,-64.9060822
146215973.504000,-65.4705582
146563115.776000,-65.3370132
146910258.048000,-66.1107712
147257400.320000,-66.667366
147604542.592000,-67.1281204
147951684.864000,-67.2951431
148298827.136000,-67.3102264
148645969.408000,-68.0774155
148993111.680000,-68.8278961
149340253.952000,-68.3913193
149687396.224000,-68.5239105
150034538.496000,-67.3829651
150381680.768000,-68.8935928
150728823.040000,-70.722641
151075965.312000,-70.4337234
151423107.584000,-71.7821655
151770249.856000,-71.2204895
152117392.128000,-72.3776932
152464534.400000,-72.934433
152811676.672000,-72.3198318
153158818.944000,-72.8699646
153505961.216000,-74.0994034
153853103.488000,-73.9799728
154200245.760000,-73.1419449
154547388.032000,-74.3661652
154894530.304000,-74.0284882
155241672.576000,-73.8953247
155588814.848000,-74.2956238
155935957.120000,-74.497757
156283099.392000,-74.4537125
156630241.664000,-73.738533
156977383.936000,-73.4989777
157324526.208000,-72.2526245
157671668.480000,-72.5431442
158018810.752000,-73.3513641
158365953.024000,-72.5386429
158713095.296000,-72.0382843
159060237.568000,-72.1018372
159407379.840000,-71.7550507
159754522.112000,-71.3608322
160101664.384000,-71.4413376
160448806.656000,-71.3141251
160795948.928000,-70.5080185
161143091.200000,-70.0813446
161490233.472000,-69.6349335
161837375.744000,-69.7825394
162184518.016000,-69.3437195
162531660.288000,-69.3055267
162878802.560000,-69.1634216
163225944.832000,-68.0646133
163573087.104000,-68.2148666
163920229.376000,-67.8610992
164267371.648000,-68.6828079
164614513.920000,-67.4458313
164961656.192000,-67.5757904
165308798.464000,-67.6808701
165655940.736000,-66.8023148
166003083.008000,-66.7865829
166350225.280000,-66.4854126
166697367.552000,-66.5015106
167044509.824000,-65.9133301
167391652.096000,-65.9800873
167738794.368000,-65.4466248
168085936.640000,-65.1118164
168433078.912000,-64.875946
168780221.184000,-64.9910889
169127363.456000,-64.8421783
169474505.728000,-64.3937149
169821648.000000,-64.1242752
170168790.272000,-63.4727898
170515932.544000,-63.3294334
170863074.816000,-62.8780289
171210217.088000,-62.9556389
171557359.360000,-62.611248
171904501.632000,-62.1621246
172251643.904000,-61.7339783
172598786.176000,-61.5452805
172945928.448000,-61.2079735
173293070.720000,-60.9250793
173640212.992000,-60.5457153
173987355.264000,-59.7321014
174334497.536000,-59.6723366
174681639.808000,-59.6099854
175028782.080000,-59.1269836
175375924.352000,-58.6805267
175723066.624000,-58.4647179
176070208.896000,-58.0886803
176417351.168000,-57.8601837
176764493.440000,-57.6245537
177111635.712000,-57.3342209
177458777.984000,-57.1730232
177805920.256000,-56.8256683
178153062.528000,-56.8002281
178500204.800000,-56.7267227
178847347.072000,-56.5645103
179194489.344000,-56.4626999
179541631.616000,-56.3369102
179888773.888000,-56.2887344
180235916.160000,-56.2859573
180583058.432000,-56.3226242
180930200.704000,-56.1177483
181277342.976000,-56.3441544
181624485.248000,-56.1068001
181971627.520000,-56.2194901
182318769.792000,-56.2884102
182665912.064000,-56.3539619
183013054.336000,-56.2579002
183360196.608000,-56.4257698
183707338.880000,-56.4558449
184054481.152000,-56.554203
184401623.424000,-56.6194687
184748765.696000,-56.7035713
185095907.968000,-56.9154015
185443050.240000,-56.9618225
185790192.512000,-57.0527687
186137334.784000,-57.2082672
186484477.056000,-57.7236137
186831619.328000,-57.7898636
187178761.600000,-57.9592285
187525903.872000,-58.1850891
187873046.144000,-58.5986214
188220188.416000,-58.8444176
188567330.688000,-59.0309296
188914472.960000,-59.3611565
189261615.232000,-59.61446
189608757.504000,-59.618351
189955899.776000,-60.2788734
190303042.048000,-60.1845551
190650184.320000,-60.1621666
190997326.592000,-60.0200844
191344468.864000,-59.9688263
191691611.136000,-59.787117
192038753.408000,-59.612011
192385895.680000,-59.2857742
192733037.952000,-58.6267319
193080180.224000,-58.2802277
193427322.496000,-57.9269066
193774464.768000,-57.3048019
194121607.040000,-56.6173019
194468749.312000,-56.0178223
194815891.584000,-55.318531
195163033.856000,-54.5409584
195510176.128000,-53.9323769
195857318.400000,-53.0643387
196204460.672000,-52.3177109
196551602.944000,-51.3533478
196898745.216000,-50.6651077
197245887.488000,-49.795742
197593029.760000,-48.9099503
197940172.032000,-48.1508713
198287314.304000,-47.4014053
198634456.576000,-46.6966171
198981598.848000,-46.1443062
199328741.120000,-45.6528206
199675883.392000,-45.2477074
200023025.664000,-45.0168114
200370167.936000,-44.8150711
200717310.208000,-44.7730141
201064452.480000,-44.8347588
201411594.752000,-44.8930206
201758737.024000,-45.0303383
202105879.296000,-45.1540184
202453021.568000,-45.3796883
202800163.840000,-45.521389
203147306.112000,-45.6921692
203494448.384000,-45.8530579
203841590.656000,-46.0893021
204188732.928000,-46.121212
204535875.200000,-46.2944298
204883017.472000,-46.502903
205230159.744000,-46.6282768
205577302.016000,-46.7121429
205924444.288000,-46.8568077
206271586.560000,-46.9616356
206618728.832000,-47.0174866
206965871.104000,-47.1574135
207313013.376000,-47.3574066
207660155.648000,-47.4603996
208007297.920000,-47.5715485
208354440.192000,-47.6720924
208701582.464000,-47.9024162
209048724.736000,-48.0048294
209395867.008000,-48.1003304
209743009.280000,-48.367939
210090151.552000,-48.5857735
210437293.824000,-48.7107048
210784436.096000,-48.8926125
211131578.368000,-49.083168
211478720.640000,-49.2232208
211825862.912000,-49.4691887
212173005.184000,-49.7280998
212520147.456000,-49.9715462
212867289.728000,-50.1547775
213214432.000000,-50.427433
213561574.272000,-50.6150703
213908716.544000,-50.9235611
214255858.816000,-51.1234703
214603001.088000,-51.3342781
214950143.360000,-51.7438087
215297285.632000,-51.8891525
215644427.904000,-52.2569618
215991570.176000,-52.6791229
216338712.448000,-52.9374123
216685854.720000,-53.2814484
217032996.992000,-53.6040497
217380139.264000,-54.1316872
217727281.536000,-54.5108986
218074423.808000,-54.7532425
218421566.080000,-55.3590927
218768708.352000,-56.089798
219115850.624000,-56.5335159
219462992.896000,-57.0502243
219810135.168000,-57.8131027
220157277.440000,-58.5456619
220504419.712000,-58.9703178
220851561.984000,-58.9700394
221198704.256000,-59.0331497
221545846.528000,-58.6842079
221892988.800000,-57.82724
222240131.072000,-56.7887497
222587273.344000,-55.4157867
222934415.616000,-54.3154488
223281557.888000,-53.1268044
223628700.160000,-52.2887878
223975842.432000,-51.1107826
224322984.704000,-50.203701
224670126.976000,-49.4322891
225017269.248000,-48.5842133
225364411.520000,-48.0472069
225711553.792000,-47.3421249
226058696.064000,-46.8325539
226405838.336000,-46.2838478
226752980.608000,-45.7852974
227100122.880000,-45.344841
227447265.152000,-44.9498711
227794407.424000,-44.4822159
228141549.696000,-44.1744537
228488691.968000,-43.795002
228835834.240000,-43.4900017
229182976.512000,-43.1280937
229530118.784000,-42.8522758
229877261.056000,-42.5974083
230224403.328000,-42.3245773
230571545.600000,-42.0722427
230918687.872000,-41.8559303
231265830.144000,-41.5864906
231612972.416000,-41.3627701
231960114.688000,-41.2068176
232307256.960000,-41.0264206
232654399.232000,-40.8389969
233001541.504000,-40.6507378
233348683.776000,-40.4853249
233695826.048000,-40.4178886
234042968.320000,-40.2553902
234390110.592000,-40.1232224
234737252.864000,-40.0643692
235084395.136000,-40.0159035
235431537.408000,-39.9323235
235778679.680000,-39.9188194
236125821.952000,-39.9155617
236472964.224000,-39.8987999
236820106.496000,-39.9003677
237167248.768000,-39.954174
237514391.040000,-40.0435982
237861533.312000,-40.0531464
238208675.584000,-40.139698
238555817.856000,-40.2506638
238902960.128000,-40.3903351
239250102.400000,-40.5157242
239597244.672000,-40.6793671
239944386.944000,-40.885376
240291529.216000,-41.0288429
240638671.488000,-41.2362862
240985813.760000,-41.4702187
241332956.032000,-41.7438126
241680098.304000,-41.9434586
242027240.576000,-42.2504005
242374382.848000,-42.5281525
242721525.120000,-42.8764801
243068667.392000,-43.183609
243415809.664000,-43.5932198
243762951.936000,-43.9511032
244110094.208000,-44.3404198
244457236.480000,-44.7083855
244804378.752000,-45.2036972
245151521.024000,-45.6387901
245498663.296000,-46.1001129
245845805.568000,-46.5356407
246192947.840000,-47.1317673
246540090.112000,-47.6310616
246887232.384000,-48.1442909
247234374.656000,-48.7590294
247581516.928000,-49.2964478
247928659.200000,-49.9388046
248275801.472000,-50.4788857
248622943.744000,-51.171505
248970086.016000,-51.7314186
249317228.288000,-52.3950882
249664370.560000,-52.9833527
250011512.832000,-53.5688515
250358655.104000,-54.1821175
250705797.376000,-54.9195328
251052939.648000,-55.9348984
251400081.920000,-56.6095963
251747224.192000,-57.1320267
252094366.464000,-58.0617905
252441508.736000,-58.9314079
252788651.008000,-59.5889091
253135793.280000,-60.2619858
253482935.552000,-60.9674568
253830077.824000,-61.3602295
254177220.096000,-61.312336
254524362.368000,-61.8282318
254871504.640000,-60.9514084
255218646.912000,-60.3588676
255565789.184000,-59.5640068
255912931.456000,-58.4923439
256260073.728000,-57.5912514
256607216.000000,-56.4818192
256954358.272000,-55.5735435
257301500.544000,-54.6183167
257648642.816000,-53.6273994
257995785.088000,-52.6536484
258342927.360000,-51.8086052
258690069.632000,-50.9538498
259037211.904000,-50.1518631
259384354.176000,-49.3936615
259731496.448000,-48.6952362
260078638.720000,-47.9199142
260425780.992000,-47.0994492
260772923.264000,-46.5423393
261120065.536000,-45.8763809
261467207.808000,-45.2206268
261814350.080000,-44.6355476
262161492.352000,-44.1126823
262508634.624000,-43.6043625
262855776.896000,-43.0652313
263202919.168000,-42.6575432
263550061.440000,-42.2586479
263897203.712000,-41.8571777
264244345.984000,-41.5598602
264591488.256000,-41.2266273
264938630.528000,-41.031395
265285772.800000,-40.7592087
265632915.072000,-40.5902405
265980057.344000,-40.4876709
266327199.616000,-40.3842888
266674341.888000,-40.253685
267021484.160000,-40.2183723
267368626.432000,-40.2047234
267715768.704000,-40.1341515
268062910.976000,-40.1106262
268410053.248000,-40.1608467
268757195.520000,-40.184906
269104337.792000,-40.1596642
269451480.064000,-40.1765976
269798622.336000,-40.2487869
270145764.608000,-40.3221741
270492906.880000,-40.3394356
270840049.152000,-40.4176254
271187191.424000,-40.5229225
271534333.696000,-40.5811577
271881475.968000,-40.6528778
272228618.240000,-40.7585754
272575760.512000,-40.87714
272922902.784000,-40.9703102
